"Theta [deg]","dB(GainPhi) [] - Freq='28GHz' Phi='0deg'","dB(GainPhi) [] - Freq='28GHz' Phi='90deg'","dB(GainTheta) [] - Freq='28GHz' Phi='0deg'","dB(GainTheta) [] - Freq='28GHz' Phi='90deg'"
-180,-22.2094520393584,-11.200337252287,-11.200337252287,-22.2094520393583
-179,-21.1001518766358,-11.1345243181864,-11.2891183670824,-22.3291072965195
-178,-20.0860671744575,-11.0176428417534,-11.4400354775684,-23.1021150052005
-177,-19.1692974164073,-10.865193055742,-11.6569356401598,-24.6481321352867
-176,-18.3437388579671,-10.6972438911998,-11.9455885266743,-27.2514146434074
-175,-17.6009440351975,-10.5307132882638,-12.3140801997346,-31.4127380052234
-174,-16.9324888846111,-10.3733471252722,-12.7733989939489,-35.071251198908
-173,-16.3308362153023,-10.2208193502449,-13.3382847760931,-30.9391659936183
-172,-15.7895737479919,-10.0574638533414,-14.0284283276249,-26.766647557663
-171,-15.3034042120463,-9.86094896193932,-14.8700684534552,-24.1133943814396
-170,-14.8680475436514,-9.61050525947668,-15.8977369812812,-22.4777944755269
-169,-14.4801214526713,-9.29629338035705,-17.1545025474803,-21.5817129742095
-168,-14.1370262091155,-8.92552740682963,-18.6829979899138,-21.2982527056267
-167,-13.8368422194305,-8.52194690137533,-20.4742124326778,-21.5843776300554
-166,-13.5782417894473,-8.11937406349617,-22.2589398219339,-22.4529059568053
-165,-13.3604137169729,-7.75344878979233,-23.0804425285976,-23.9502923160167
-164,-13.1829985019876,-7.45524624718217,-21.9821101624,-26.055169286245
-163,-13.0460318728202,-7.24787270552827,-19.7418926334873,-28.1376456837683
-162,-12.9498944857679,-7.14512775812846,-17.4192638791852,-28.1696075337377
-161,-12.8952658232966,-7.15078803615331,-15.3576624454175,-25.9816675720312
-160,-12.8830803753726,-7.25742656821702,-13.5878827452553,-23.6379867409499
-159,-12.9144840747201,-7.44440591625808,-12.0735477438794,-21.8635020552026
-158,-12.9907886218434,-7.67582058933751,-10.7745299946689,-20.6837544542356
-157,-13.1134207295322,-7.90096577797033,-9.65877308672201,-20.0263764910459
-156,-13.2838623765061,-8.06161813651721,-8.70260808486603,-19.8300075716613
-155,-13.5035768053084,-8.10875355603624,-7.88905723809311,-20.0474300051905
-154,-13.773913136062,-8.02304632809527,-7.20618784308969,-20.623723577552
-153,-14.0959800093261,-7.8249278183652,-6.64585763764331,-21.4489538828175
-152,-14.4704756028629,-7.56550346284355,-6.20281851056223,-22.2766290424463
-151,-14.8974578879808,-7.30626468365058,-5.87408717873736,-22.6912485380714
-150,-15.3760358139448,-7.10193467678442,-5.65850106351685,-22.3762365110442
-149,-15.9039610250259,-6.99258381813519,-5.55639443455673,-21.4889442439279
-148,-16.4771045380888,-7.00251868292708,-5.56933953281273,-20.4515269088953
-147,-17.0888206349386,-7.14140009156606,-5.69989529211658,-19.5663144116454
-146,-17.7292422354084,-7.40458624554619,-5.95128748411556,-18.9649134491258
-145,-18.3846312509878,-7.7715619880896,-6.32689872288615,-18.6871854520654
-144,-19.0370278886894,-8.20304751693724,-6.82935617556789,-18.7330578749808
-143,-19.6645735090991,-8.63987882068321,-7.45883958449238,-19.0772192369858
-142,-20.2429214134185,-9.00992966703115,-8.20996432463937,-19.6575511924156
-141,-20.7479323009322,-9.24880469790332,-9.06627554971327,-20.3422309716286
-140,-21.1592767930712,-9.32859153031907,-9.99144826167763,-20.8998895250106
-139,-21.4638566803417,-9.27347652522402,-10.9182635937222,-21.0619408990633
-138,-21.6577026840807,-9.14728361781537,-11.7433437227027,-20.728934563998
-137,-21.745655490975,-9.02495519324614,-12.3463671090629,-20.0739590897058
-136,-21.7393143630105,-8.97001752501633,-12.645513522982,-19.3684962435145
-135,-21.6544809671683,-9.02582928270548,-12.6522967253728,-18.8099389299603
-134,-21.5091312203459,-9.21551004780708,-12.4632132901137,-18.5002322646312
-133,-21.3222166922991,-9.54383097638138,-12.1978165751617,-18.4823122088324
-132,-21.113018920221,-9.99747408527223,-11.9481431409107,-18.7673612929696
-131,-20.9006530743155,-10.5430953289513,-11.7641835122957,-19.3411298653889
-130,-20.7034987432342,-11.1255454465719,-11.6590186116134,-20.1482823276195
-129,-20.5385552702437,-11.672261602844,-11.6174009916443,-21.0524930914066
-128,-20.4208211794298,-12.1113140554338,-11.6033848877252,-21.7968908792832
-127,-20.3627775449769,-12.401626512574,-11.5693436810913,-22.0780808414487
-126,-20.373982753958,-12.5554994799043,-11.46942557449,-21.8020999252717
-125,-20.4607247964281,-12.6321285490894,-11.2758869158614,-21.19113880634
-124,-20.62565766604,-12.7082845997854,-10.9902837847235,-20.5505535369594
-123,-20.8673795313893,-12.8506937789731,-10.6417287362511,-20.0795505505024
-122,-21.1799986376081,-13.1026781850898,-10.2738331581565,-19.8652022943011
-121,-21.5528880138655,-13.4811228794812,-9.92965316155213,-19.9250063480481
-120,-21.9710411118725,-13.9762413211089,-9.6418535976912,-20.2275882736963
-119,-22.4166171055393,-14.5508263601243,-9.4289533622875,-20.6861571445248
-118,-22.8721791962753,-15.1415864060006,-9.29516816524517,-21.1401795736234
-117,-23.3255020754834,-15.6704724305239,-9.23160624661921,-21.371879124711
-116,-23.774704699033,-16.0723672425584,-9.21807355370709,-21.2184646173188
-115,-24.2316248038784,-16.3287983325205,-9.22603035841328,-20.7073367563941
-114,-24.7218279779967,-16.4799617066689,-9.22369922538348,-20.0242248971034
-113,-25.2813680063719,-16.6029584896502,-9.18346793686246,-19.3635063586977
-112,-25.9518304136261,-16.7777203931144,-9.08961004096179,-18.8476168822906
-111,-26.7748116196931,-17.0650505056865,-8.94262215710521,-18.5300468901068
-110,-27.7844866104195,-17.5002195062599,-8.75755219747931,-18.4184104707399
-109,-28.991884852495,-18.0937125969414,-8.55732254153573,-18.4889228920345
-108,-30.3454153438955,-18.8318617854613,-8.36476692116915,-18.6909883147369
-107,-31.648076522792,-19.674262343784,-8.19666857276842,-18.9491323297867
-106,-32.4904311065207,-20.5480426456937,-8.06094295499297,-19.1732016518171
-105,-32.487712219016,-21.3424712155454,-7.95654364726735,-19.2856332393179
-104,-31.7575164902202,-21.9132830507468,-7.87529025027116,-19.2569757611572
-103,-30.7706573512051,-22.1124321292863,-7.80497268822235,-19.1202183446619
-102,-29.8810094719809,-21.8490053992511,-7.73310743216759,-18.948538412454
-101,-29.2426031363535,-21.1442544042182,-7.65045841486498,-18.8181531981018
-100,-28.9033657198425,-20.121863324541,-7.55323396064175,-18.7832627150891
-99,-28.8698930266089,-18.9406598683325,-7.44318867313849,-18.8675178063472
-98,-29.1311079390405,-17.7350133048141,-7.32572145475423,-19.0635129460374
-97,-29.6577132502268,-16.5941245095541,-7.20692565800176,-19.3343684740812
-96,-30.3822046438871,-15.5664556446896,-7.09084942381438,-19.6187706050196
-95,-31.1587299865067,-14.6705229045265,-6.97791830918282,-19.8459925382973
-94,-31.7298509918088,-13.9037674505748,-6.8649117096949,-19.9637676854357
-93,-31.8063865588463,-13.2482803116657,-6.74636124391352,-19.9660532507593
-92,-31.3040126351111,-12.6747563281342,-6.61681766114596,-19.8978274838867
-91,-30.4262018213007,-12.1466932783812,-6.47313128496874,-19.8326652334801
-90,-29.4475207628481,-11.6264905988239,-6.31584314759466,-19.8436126513518
-89,-28.5437605150947,-11.0835204242882,-6.14912808971168,-19.9850760010949
-88,-27.7879153617252,-10.5017178755497,-5.97936324974301,-20.2858231341289
-87,-27.1944340807598,-9.8828229460828,-5.81295767956029,-20.7444889432247
-86,-26.7510359840492,-9.24329320224007,-5.65426909823639,-21.3201633131336
-85,-26.4351343231534,-8.60683840592429,-5.50425748149387,-21.9173454506861
-84,-26.2221404395319,-7.99661589835881,-5.3601998439069,-22.3815189865291
-83,-26.0902730111304,-7.4299407691001,-5.21648993179253,-22.5450791698479
-82,-26.0236013246937,-6.91603477131597,-5.0662951330893,-22.3325262102927
-81,-26.013486381328,-6.45599265916778,-4.90360839396954,-21.8205170658562
-80,-26.058137097554,-6.04402324095747,-4.72505930686028,-21.1687659977566
-79,-26.1602862922973,-5.66941006810786,-4.5308703809689,-20.5174406836812
-78,-26.3234749053253,-5.31895059665762,-4.32464562893765,-19.9474855549293
-77,-26.5476638065266,-4.97966228320326,-4.11214407411271,-19.4887784303392
-76,-26.824852514127,-4.64134628488991,-3.89955794535511,-19.1381032706423
-75,-27.1354740665002,-4.29840231980508,-3.69189884629862,-18.87280655749
-74,-27.4469861832072,-3.95035563170502,-3.49192592575579,-18.6602185698549
-73,-27.7171005193647,-3.60096618161562,-3.2997915717964,-18.4657058847439
-72,-27.9038763147229,-3.25631794051085,-3.11336539223752,-18.2607187876269
-71,-27.9810048215989,-2.92259663388705,-2.92906170524691,-18.0296639300465
-70,-27.950190149513,-2.60421848165608,-2.742918399905,-17.7729763904907
-69,-27.8415077157129,-2.30270271193075,-2.55164099483591,-17.5049356677176
-68,-27.701477961212,-2.01640003873909,-2.35334815801537,-17.247640555519
-67,-27.577669683737,-1.74100513312049,-2.14785031608898,-17.0242785922091
-66,-27.5078983624974,-1.47067423074342,-1.93644420658629,-16.8541084777243
-65,-27.5155876530592,-1.19948092797344,-1.7213560617113,-16.7497672000483
-64,-27.6087231131336,-0.922859480219867,-1.50505188529629,-16.7162884686131
-63,-27.7795745657566,-0.638656337877518,-1.28962950319621,-16.7509769446049
-62,-28.003844587923,-0.347503762320966,-1.07643559955944,-16.8436114469247
-61,-28.2398208908475,-0.052446360740018,-0.865956222577161,-16.9769337096598
-60,-28.4303188797897,0.242000119952213,-0.657947986278126,-17.1278097656905
-59,-28.511740642672,0.531022146011854,-0.451726145168712,-17.2696680945197
-58,-28.4320479216516,0.810572983107354,-0.246506396781612,-17.3765698954563
-57,-28.1705656151412,1.07809612214196,-0.0417048552975357,-17.4283659613123
-56,-27.7454655373798,1.33281615085563,0.162871663889173,-17.4152053314985
-55,-27.202675743341,1.57561908388363,0.366973873392896,-17.339265891521
-54,-26.595982409167,1.80861401646605,0.569986025670569,-17.2127787430128
-53,-25.9718640370945,2.03450526895871,0.771089350768074,-17.053443032462
-52,-25.3636959429744,2.25592115861337,0.969459203865954,-16.879443545062
-51,-24.7924320708116,2.474842986218,1.16444522538175,-16.705819072863
-50,-24.2696973590664,2.69224916041293,1.35569819587546,-16.5427433135376
-49,-23.8009235698103,2.90803312666431,1.54322608337954,-16.3954087555378
-48,-23.3877180853499,3.12118241693632,1.7273792586442,-16.2649326467999
-47,-23.0294156451144,3.33014289088377,1.90877777666559,-16.1497854007404
-46,-22.724002563111,3.53325792415411,2.08820110290739,-16.0473897446523
-45,-22.4686231041681,3.72917364256447,2.26646317619031,-15.9556285860881
-44,-22.2598339094236,3.91712970307544,2.44429422361707,-15.8740383252401
-43,-22.0937230086645,4.09709483427056,2.62224633605109,-15.8045088982968
-42,-21.965970862581,4.26974394294874,2.80063356297128,-15.7514011092518
-41,-21.8719031168011,4.4363023258825,2.979510353108,-15.7211142935858
-40,-21.8065654455775,4.59830114034811,3.15868573208529,-15.7212425691444
-39,-21.7648367393651,4.75729758830908,3.33776568135727,-15.7594987962695
-38,-21.7415853523871,4.91461371929788,3.5162133808653,-15.8425539449939
-37,-21.7318626708745,5.07113932828607,3.69341639743114,-15.9748688047233
-36,-21.7311186881136,5.22722800035898,3.86875116230321,-16.1575356671274
-35,-21.7354166331875,5.38269402369373,4.04163751523195,-16.387147976052
-34,-21.7416198285502,5.5368967744562,4.21157897402261,-16.6548154482186
-33,-21.7475255175689,5.6888836346935,4.37818712351506,-16.9456622472988
-32,-21.7519278239817,5.83755591003261,4.54119073337133,-17.2394411993096
-31,-21.7546037877878,5.98182473876346,4.70043175710165,-17.5130542507966
-30,-21.7562294371488,6.12073303827325,4.85585124656766,-17.74536542847
-29,-21.7582435186912,6.25353132576966,5.00746854047335,-17.9234211523111
-28,-21.7626822346855,6.37970638020164,5.15535698906448,-18.0476257132873
-27,-21.7720084491275,6.49897006578359,5.29961909384019,-18.1331530247744
-26,-21.7889544916065,6.61122045810487,5.44036338430213,-18.2068229953938
-25,-21.8163910813933,6.71648891180511,5.57768471501437,-18.3013298876249
-24,-21.8572281804945,6.81488559123156,5.71164901754288,-18.4496902196456
-23,-21.9143482365524,6.90655312246096,5.84228293937983,-18.6817089198816
-22,-21.9905688890691,6.99163427773104,5.96956828783413,-19.0226692335973
-21,-22.0886306895215,7.07025574507604,6.09344079903506,-19.4935626305849
-20,-22.2112052686051,7.14252669868083,6.21379248386141,-20.112072154827
-19,-22.3609201382248,7.20854850619791,6.3304766624351,-20.8937744415487
-18,-22.5403975064171,7.26843069055671,6.44331477274945,-21.8533005705114
-17,-22.7523058378724,7.32230817117918,6.55210410369524,-23.0053821479016
-16,-22.9994242989125,7.37035561555765,6.65662573001186,-24.3658173355179
-15,-23.2847217018926,7.41279609496202,6.75665208796545,-25.9524734918782
-14,-23.6114532317629,7.44990278978005,6.85195380060357,-27.7865728304166
-13,-23.9832803145345,7.48199391179457,6.94230552071851,-29.8948235148317
-12,-24.4044218091854,7.50942208083544,7.02749069527468,-32.3138000710602
-11,-24.8798487872793,7.53256000631075,7.10730526049985,-35.1002947907434
-10,-25.4155413285856,7.55178448571384,7.18156035085438,-38.3582130599905
-9,-26.018835352048,7.56746053536264,7.25008415021101,-42.3164753243835
-8,-26.6989027734448,7.57992705816061,7.31272303459018,-47.6091602971557
-7,-27.4674330229676,7.58948498423868,7.36934215844216,-57.060948372906
-6,-28.3396243597114,7.59638841912288,7.41982562645241,-61.6175223736855
-5,-29.3356584841845,7.60083906910745,7.46407637520984,-51.3268597994106
-4,-30.4829288751507,7.60298408499903,7.50201586787431,-47.0909164075004
-3,-31.8193935648892,7.6029174153433,7.53358368318099,-44.2629850211498
-2,-33.3982699838249,7.60068470013078,7.55873705969231,-41.9187299954816
-1,-35.2923160763741,7.59629158303468,7.57745043826017,-39.7241467147317
0,-37.5828727009361,7.58971503063109,7.5897150306311,-37.5828727009392
1,-40.2410408639351,7.58091683566679,7.59553842997366,-35.516281385721
2,-42.5046598884203,7.56985802256072,7.59494426947338,-33.5820459179059
3,-42.3211500788935,7.5565124830355,7.58797192748333,-31.8294547099464
4,-39.9736146247961,7.54087797598525,7.57467627142103,-30.2873963998199
5,-37.439623388907,7.52298273436594,7.55512742704356,-28.9676580390591
6,-35.2976678861583,7.50288638736152,7.52941055434798,-27.8711710279919
7,-33.5399958453933,7.48067471073955,7.49762560567566,-26.9926973443744
8,-32.0832231086548,7.45644876471569,7.45988703533824,-26.3232712707465
9,-30.8567896786089,7.43031009552748,7.41632342312031,-25.8506870233052
10,-29.8091816237795,7.40234464066402,7.36707696650075,-25.5582543339158
11,-28.9032223768628,7.37260854978917,7.31230278883849,-25.4218001362127
12,-28.1115573072824,7.34111911098391,7.2521680039513,-25.4049393325557
13,-27.4135047588808,7.3078532429837,7.18685047277226,-25.4536035560765
14,-26.7929901949676,7.27275460299331,7.11653718686351,-25.4935646089447
15,-26.2372058589637,7.23574844797483,7.04142221868121,-25.4385666973974
16,-25.7357429242061,7.1967612998926,6.96170419209031,-25.2153230868838
17,-25.280033093925,7.15574062307579,6.87758325121552,-24.7960598661035
18,-24.8629942724813,7.11266857153054,6.78925754338323,-24.2116956466224
19,-24.4788090163557,7.06756380020819,6.69691928378329,-23.5320531709735
20,-24.1227843539602,7.02046662026311,6.60075053503229,-22.8326778727607
21,-23.7912539255525,6.97140546838455,6.50091891113176,-22.1730387054111
22,-23.481492577281,6.92034652475028,6.39757349648656,-21.59095522056
23,-23.1916220429553,6.8671327878446,6.29084134748698,-21.105697073334
24,-22.9204951455093,6.8114231109306,6.18082500438942,-20.722867565733
25,-22.667554848891,6.75264454840027,6.0676014704114,-20.4381542270082
26,-22.432672588408,6.68997185058104,5.95122309811273,-20.2394773229239
27,-22.2159765715227,6.62234549665932,5.83172074710499,-20.1080111817722
28,-22.0176844954573,6.54853436159997,5.70910943331026,-20.0188881626171
29,-21.8379562706555,6.46724178832213,5.58339647704241,-19.9425729950933
30,-21.676781246787,6.37724576675871,5.45459188330838,-19.8478674380631
31,-21.5339116683527,6.27755644105943,5.3227203719115,-19.7069042960488
32,-21.408850073922,6.16756830024518,5.18783414702591,-19.5011129069866
33,-21.3008932647868,6.04718080576866,5.05002519523291,-19.225696148877
34,-21.2092293043601,5.91686042310928,4.90943567364851,-18.8901893385248
35,-21.1330768920488,5.77761993429268,4.76626484436573,-18.5147438704662
36,-21.0718489742728,5.63089890936919,4.62077107343413,-18.1241916881421
37,-21.0253158433898,5.47834373080388,4.47326767677501,-17.7425837552498
38,-20.9937389177865,5.32150670380588,4.3241118767745,-17.3897258268337
39,-20.9779464277344,5.16150858310324,4.17368681723635,-17.0797656811624
40,-20.9793269444084,4.99873036441026,4.02237741854394,-16.8211453598432
41,-20.9997252222334,4.83260905945349,3.87054174608942,-16.6172028940138
42,-21.0412350767143,4.66160100649361,3.71848038559332,-16.4669763783269
43,-21.1058936854479,4.48334475837573,3.5664069251917,-16.3660362599055
44,-21.1952897247323,4.29501232230378,3.4144229061754,-16.307348452853
45,-21.3101055467718,4.09379604867525,3.26250044029704,-16.2822433971256
46,-21.4496254088006,3.87744982101774,3.11047509614998,-16.2815452673333
47,-21.6112637298136,3.64479047527882,2.95805071041882,-16.2968151896591
48,-21.7902045057798,3.39606444532172,2.80481663076209,-16.3215181156993
49,-21.9792929030581,3.13309039407175,2.6502767227527,-16.3518074844707
50,-22.1693625496099,2.85910227870163,2.49388842675861,-16.3866214766741
51,-22.3501706926191,2.57824948113715,2.3351093164985,-16.4269376883496
52,-22.5119854377646,2.29477558345675,2.17344798532265,-16.4742852418076
53,-22.6475969564437,2.01199768423474,2.00851558977435,-16.5288551664374
54,-22.7541954216256,1.731317068122,1.84007390228595,-16.5877088859398
55,-22.8343927123145,1.45155224555544,1.66807518901524,-16.6436680626914
56,-22.895864417034,1.16884098800562,1.49268866101444,-16.6854939454489
57,-22.949603969786,0.87720502898895,1.31430783370322,-16.6998371108059
58,-23.0072899924566,0.569676679312436,1.13353324163574,-16.6749457441089
59,-23.0784665885013,0.239744077511886,0.951126110415595,-16.60519222565
60,-23.1681121131355,-0.117171631499411,0.767931321699834,-16.4945913335245
61,-23.2749563790455,-0.502466612823675,0.584772640842083,-16.3575492248521
62,-23.3908202230705,-0.913560964210256,0.4023295055635,-16.216424926391
63,-23.5013194907837,-1.34379836407168,0.221011703024221,-16.0971199137213
64,-23.5882898842083,-1.783289852035,0.0408541744231041,-16.0245106453095
65,-23.6339105442601,-2.22086039482811,-0.138543277992027,-16.0189069315916
66,-23.6255845889127,-2.64692931421899,-0.318009355614979,-16.0937061235893
67,-23.5596706830286,-3.0566135004787,-0.498714368057172,-16.2537958240955
68,-23.4421915281772,-3.45190226410504,-0.682003306390536,-16.4942319942082
69,-23.2861112344295,-3.84187429101421,-0.869165022791867,-16.7991801720409
70,-23.1066223525829,-4.24071322625608,-1.06116892203234,-17.1419415010744
71,-22.9166210127122,-4.66421137597261,-1.25841271700915,-17.487811595965
72,-22.7239240929124,-5.12587485416843,-1.46053209413726,-17.8015785266718
73,-22.5307005275597,-5.63354258339136,-1.66632384433789,-18.0591346088121
74,-22.3348187552816,-6.18704423345489,-1.87382532611471,-18.2582032009979
75,-22.1324332162794,-6.77731210500245,-2.08057110169021,-18.4210758272085
76,-21.9209321944464,-7.38760280310595,-2.28400958611866,-18.5867764050061
77,-21.7012998502468,-7.99764248350086,-2.48201212760249,-18.7970851905557
78,-21.4791525486037,-8.59079377186133,-2.67335828357825,-19.0824048293575
79,-21.2642420214749,-9.16238131837634,-2.85805740110217,-19.4493859035047
80,-21.0688300472711,-9.72540109535196,-3.0373889713132,-19.868943573678
