"Theta [deg]","cang_deg_val(rEPhi) [] - Freq='28GHz' patch_feed='1.01mm' patch_L='3.4mm' patch_w='4.232mm' Phi='0deg'","cang_deg_val(rEPhi) [] - Freq='28GHz' patch_feed='1.01mm' patch_L='3.4mm' patch_w='4.232mm' Phi='90deg'","cang_deg_val(rETheta)_1 [] - Freq='28GHz' patch_feed='1.01mm' patch_L='3.4mm' patch_w='4.232mm' Phi='0deg'","cang_deg_val(rETheta)_1 [] - Freq='28GHz' patch_feed='1.01mm' patch_L='3.4mm' patch_w='4.232mm' Phi='90deg'"
-180,-143.251770887906,-164.545198368323,-164.545198368323,36.7482291120945
-179,-137.474044637751,-164.762742500313,-164.896623854661,138.012560823422
-178,-130.697253346502,-165.247104896643,-164.898146267294,147.618011053577
-177,-123.05860878271,-165.969430661379,-164.550677456264,151.004511832834
-176,-114.816714142158,-166.87633985439,-163.847796547172,153.178512104031
-175,-106.323350610433,-167.883015573006,-162.774414478508,155.124213091095
-174,-97.9499538293192,-168.865629592679,-161.30422263173,157.253427906051
-173,-90.0037914303507,-169.655422947518,-159.395340103202,159.928000200959
-172,-82.678260411542,-170.037315598453,-156.983078351067,163.778545773259
-171,-76.0523189254686,-169.755911711096,-153.967835789834,170.621318334858
-170,-70.1213717973732,-168.531584080173,-150.194437874373,189.835995566812
-169,-64.8344725066293,-166.090180004989,-145.416109267825,279.151941460559
-168,-60.1233145924397,-162.212039528822,-139.231162632432,320.879947826375
-167,-55.9198886762713,-156.804407032661,-130.97665017249,331.939214962443
-166,-52.1651370577505,-149.983430502197,-119.589961199414,338.388990513928
-165,-48.8119001613098,-142.113653296447,-103.654861516586,343.795600280417
-164,-45.8246680772629,-133.736613282919,-82.5247194669774,349.229975794746
-163,-43.1776531207179,-125.392740410884,-58.9558883768304,355.271266479532
-162,-40.8519734263317,-117.450495046665,-38.1510034184523,362.426624177776
-161,-38.8323233691174,-110.04808519246,-22.3491245606898,371.282678209831
-160,-37.1033307428269,-103.138548709636,-10.6763623850141,382.553363668921
-159,-35.6457905258376,-96.5655664214714,-1.72904966410467,396.928859175489
-158,-34.4330632026691,-90.1201570610804,5.50795012526273,414.473695367592
-157,-33.4280712413146,-83.567612108882,11.6675677824558,433.762504747368
-156,-32.5814376861197,-76.6521757919854,17.1392665515597,452.256194895699
-155,-31.831284674444,-69.0897100024582,22.1696507654921,468.219693402015
-154,-31.1049686972827,-60.5587134169422,26.9218472424343,481.508750457289
-153,-30.3225859864893,-50.7056080613733,31.5094993437259,492.805293391146
-152,-29.4015798403485,-39.195049985892,36.0166191077946,502.91379187139
-151,-28.2614500096661,-25.8502517202381,40.5096787990386,512.541525882434
-150,-26.8275791048247,-10.8862288483761,45.0454318313179,522.308961862105
-149,-25.0335552145809,4.93636005734327,49.6764111980043,532.815625684857
-148,-22.821912954852,20.5368868308083,54.4552550678137,544.694552392729
-147,-20.143714936027,35.0536938264963,59.4386058410075,558.596659899899
-146,-16.9577104120869,48.1746683048637,64.6911395213342,574.988432464585
-145,-13.2299168008308,60.0523104158442,70.2902093529037,593.663230595306
-144,-8.93441812561241,71.0709570509768,76.3315607633631,613.329346238824
-143,-4.05598683133046,81.6904161251585,82.936492879866,632.165267497094
-142,1.40524056233546,92.3919859280878,90.2604744384419,649.044695071063
-141,7.42748138425273,103.681202969419,98.5019982559821,663.926071813762
-140,13.9608947532872,116.101010831489,107.907087100381,677.380539128732
-139,20.923645884146,130.201093603391,118.757071323725,690.142008105296
-138,28.2035528796592,146.37561542114,131.313830382366,702.939013521803
-137,35.6673482270877,164.502314254677,145.688843841064,716.475387386858
-136,43.1767218958291,183.612031210371,161.646452668475,731.417805479434
-135,50.6070223323206,202.197164199441,178.493597603994,748.272524266579
-134,57.8630685955021,219.123563700378,195.285100197294,767.065790522262
-133,64.8880777711986,234.115232358899,211.273268104806,786.997890553818
-132,71.6649846394818,247.508269995893,226.192640799813,806.648638972462
-131,78.212131014928,259.864963997632,240.210059428478,824.846210779005
-130,84.5761714851999,271.779457630113,253.74047079076,841.246356311724
-129,90.8243911601932,283.842001639844,267.314060510818,856.162096544347
-128,97.0374356913371,296.669926795758,281.521064717695,870.17257837554
-127,103.302456421705,310.939699204487,296.978826436133,883.895383140174
-126,109.70615737314,327.33637508555,314.230210789151,897.912432684747
-125,116.327206721141,346.266388052064,333.469090804805,912.745093723628
-124,123.227883684939,367.262770714716,354.145944015751,928.799428507361
-123,130.445596030965,388.683212774058,374.939714249288,946.237412157025
-122,137.985842101188,408.634456443708,394.491336015303,964.810469514296
-121,145.81888352987,426.230837500834,412.176263902744,983.834357080309
-120,153.882206433409,441.665824057396,428.124622851242,1002.47337528995
-119,162.089337324438,455.607255185009,442.827478116088,1020.15610938653
-118,170.343130680083,468.804668999237,456.84317221067,1036.75617571241
-117,178.549599887589,482.001777819455,470.683853567649,1052.48676726063
-116,186.628069771335,495.998896140917,484.789736741798,1067.71521851963
-115,194.514954095024,511.767176127967,499.517777853585,1082.82987004766
-114,202.160426343226,530.504425516141,515.109225108036,1098.16409857304
-113,209.517855890827,553.267889889386,531.629664984331,1113.94408694898
-112,216.523421685957,579.572030794307,548.913267958589,1130.24289177469
-111,223.053977147788,606.232729732591,566.579935715338,1146.9543484292
-110,228.817617120378,629.916107610857,584.168327615248,1163.82070109963
-109,232.971320395917,650.006970777906,601.320718712736,1180.52805102333
-108,232.062942772909,667.734137452616,617.895315860927,1196.82829150879
-107,196.011988166824,684.869418150315,633.958897791675,1212.61937668155
-106,114.476263210409,703.894311391083,649.711150717065,1227.95484315881
-105,106.998536848914,730.262551571409,665.403210708664,1243.0062369689
-104,110.033575157688,777.915852846203,681.274496698557,1258.01454889697
-103,115.737064593626,837.206876988481,697.505185627655,1273.24836209824
-102,122.685479620052,871.77699611408,714.179196893281,1288.96693103456
-101,130.500606314955,893.771991238114,731.263273003678,1305.37802783537
-100,139.110190219354,911.919382650452,748.617002697455,1322.58438890106
-99,148.575229393406,929.206848108487,766.041759139936,1340.53050161274
-98,159.03663730662,946.887986146799,783.352118721324,1358.98692236595
-97,170.690899742142,965.510977634,800.434545585043,1377.61133596043
-96,183.762834589718,985.119786662163,817.267619564755,1396.07415439906
-95,198.454878315717,1005.30831189575,833.904976137308,1414.17360180888
-94,214.864583469041,1025.41675507944,850.439162263412,1431.87374427983
-93,232.903193586054,1044.87034268112,866.964014547196,1449.26651313792
-92,252.312926908145,1063.41682922563,883.545602748294,1466.50058479939
-91,272.873435865311,1081.12635236674,900.206341278827,1483.71276003275
-90,294.724529333243,1098.25760888538,916.924190525063,1500.97775452847
-89,318.544114335556,1115.12623301464,933.645913752941,1518.28392896446
-88,345.174346856985,1132.01860451396,950.308981508181,1535.5408475232
-87,374.210426571545,1149.1384842459,966.8633550691,1552.61722106646
-86,402.743438617396,1166.57130000856,983.285152263175,1569.39342928741
-85,427.525593619764,1184.26826650393,999.578921607131,1585.80451555773
-84,447.7509349534,1202.0650305619,1015.77049293029,1601.85754981324
-83,464.321079431119,1219.74096686759,1031.89513778228,1617.62384266135
-82,478.376758150187,1237.09803614302,1047.98575197741,1633.21683733963
-81,490.803195134909,1254.02098870626,1064.06431101569,1648.76628672467
-80,502.226173771308,1270.49537293664,1080.1381225213,1664.39431819144
-79,513.099153698896,1286.58900351098,1096.20083710613,1680.19519859697
-78,523.777669336708,1302.41718679763,1112.23688856407,1696.21991775644
-77,534.571680407081,1318.10789724296,1128.22723333142,1712.46799169616
-76,545.782557528056,1333.77352954554,1144.15422741892,1728.88973100648
-75,557.729338766047,1349.49029163625,1160.00423585086,1745.4003251927
-74,570.762111440888,1365.2856862604,1175.76773427015,1761.90228610106
-73,585.248970116757,1381.13590286481,1191.4376783921,1778.30819947439
-72,601.507874156737,1396.97500991097,1207.00739661285,1794.55539118937
-71,619.656136609087,1412.71486027881,1222.46914085947,1810.60862478604
-70,639.426300999108,1428.26992056623,1237.81389865279,1826.45281096673
-69,660.154412761173,1443.57858475961,1253.03241343518,1842.08121452832
-68,681.120583527893,1458.61448917603,1268.11684786952,1857.4848892085
-67,702.017362907364,1473.38639074722,1283.06232209034,1872.64725762569
-66,723.128586352817,1487.92953427293,1297.86768598237,1887.54523190282
-65,745.137169711313,1502.29295749492,1312.53522881781,1902.15585545988
-64,768.657657836053,1516.52644609667,1327.069418956,1916.46573725852
-63,793.53181552851,1530.66948850857,1341.47505798761,1930.48003973039
-62,818.400464195125,1544.74362151093,1355.75536228432,1944.22849836808
-61,841.491877076587,1558.74907380346,1369.91045555671,1957.76727106252
-60,861.923650848098,1572.66616142877,1383.93661082835,1971.17645768492
-59,879.896982409116,1586.46107351862,1397.82637140581,1984.55335772375
-58,896.113161970727,1600.09456454814,1411.56946091364,1998.00103867347
-57,911.344304887615,1613.53116975104,1425.1542138004,2011.61125790178
-56,926.303110837159,1626.74647282562,1438.56916227118,2025.44141874609
-55,941.646475850703,1639.73079701289,1451.80442257805,2039.48847016594
-54,957.990692753716,1652.48898971499,1464.8526196603,2053.66869104592
-53,975.8562897408,1665.03707083012,1477.70923367678,2067.81733906768
-52,995.467560807428,1677.39705316797,1490.3723958194,2081.71818010976
-51,1016.43701538083,1689.59126902356,1502.84226642594,2095.15649936859
-50,1037.67639472368,1701.63730192031,1515.12018039814,2107.97218437198
-49,1057.90744574979,1713.54433294103,1527.20774776234,2120.08963151907
-48,1076.36006619571,1725.31142724712,1539.10606590782,2131.51837698244
-47,1092.93479367987,1736.9279667328,1550.81515095293,2142.33459839114
-46,1107.91607922558,1748.37604079525,1562.33364152239,2152.65729816025
-45,1121.68293804961,1759.63418638219,1573.65877729632,2162.6276150184
-44,1134.56972570535,1770.68155694588,1584.78661236726,2172.39325083968
-43,1146.82869565325,1781.50153868562,1595.71239347192,2182.09618349928
-42,1158.63378815696,1792.08406112861,1606.4310180412,2191.86063742413
-41,1170.09574308109,1802.42626898072,1616.93748739991,2201.77888309255
-40,1181.27810128831,1812.53166017637,1627.22728455318,2211.89463166754
-39,1192.21135978651,1822.40810851685,1637.29662961125,2222.18762908726
-38,1202.904787384,1832.06532714266,1647.142593367,2232.56730714753
-37,1213.35581728272,1841.51232037602,1656.7630752231,2242.88427341703
-36,1223.55698409086,1850.75527506249,1666.1566713342,2252.96197994869
-35,1233.50050627803,1859.79620509847,1675.3224703687,2262.63904788769
-34,1243.1808394032,1868.63250663606,1684.25981765641,2271.80522429141
-33,1252.59572151203,1877.25741604932,1692.9680851136,2280.41834918873
-32,1261.74630969958,1885.6612025326,1701.44647639365,2288.50147700082
-31,1270.63695348434,1893.8327992969,1709.69388645409,2296.12786490435
-30,1279.27501150035,1901.76151366597,1717.70882409984,2303.40244481542
-29,1287.67095464278,1909.43847611348,1725.4893965222,2310.44470088787
-28,1295.83885968964,1916.8575841444,1733.0333473597,2317.37394459279
-27,1303.79730823329,1924.01583616891,1740.33813486057,2324.29581560212
-26,1311.5706722924,1930.91309003381,1747.40103442119,2331.28858397934
-25,1319.19078319611,1937.55138568621,1754.21924987228,2338.38916066602
-24,1326.69903040225,1943.93402543899,1760.7900198904,2345.58121728693
-23,1334.14900396358,1950.06461064313,1767.11070917885,2352.79036814431
-22,1341.60985341203,1955.94620295924,1773.17887789857,2359.89172505731
-21,1349.17054024608,1961.58072694385,1778.99232661225,2366.73120108987
-20,1356.94500428539,1966.96867113332,1784.54911725472,2373.15484812944
-19,1365.07769394393,1972.10908687893,1789.84757306991,2379.03550468896
-18,1373.74737265673,1976.99983528301,1794.8862619574,2384.28765079794
-17,1383.16358666042,1981.63799857162,1799.66396830362,2388.86810864025
-16,1393.54356493004,1986.02035698484,1804.1796582898,2392.76638254328
-15,1405.0495138576,1990.14383655533,1808.43244308002,2395.99035529502
-14,1417.67129163947,1994.00585398496,1812.42154340775,2398.55140449553
-13,1431.08910541536,1997.60451598533,1816.14625808383,2400.45010419497
-12,1444.64320346483,2000.93866417764,1819.6059379827,2401.66082806003
-11,1457.53020719507,2004.00778587565,1822.79996622052,2402.11024547071
-10,1469.11900532189,2006.81183106434,1825.72774456791,2401.63808450378
-9,1479.12368529521,2009.35098485805,1828.3886856555,2399.90992754514
-8,1487.55474794501,2011.62544347626,1830.78221022355,2396.18936277023
-7,1494.57968036625,2013.63523276448,1832.90774851061,2388.63219136154
-6,1500.41125237186,2015.38009462967,1834.76474483976,2371.75488853434
-5,1505.2501912635,2016.85945150978,1836.35266450895,2331.88140226257
-4,1509.26523983167,2018.0724447311,1837.67100219396,2285.14981535494
-3,1512.59115871622,2019.01803123856,1838.71929120043,2262.66243753026
-2,1515.33325151081,2019.69511589856,1839.49711303563,2251.6149696206
-1,1517.57326765611,2020.10269382759,1840.00410689437,2244.63219908937
0,1519.37479584343,2020.23997875828,1840.23997875828,2239.37479584343
1,1520.78766038683,2020.10649850648,1840.20450988753,2235.03084126717
2,1521.85135038772,2019.70214593713,1839.8975645383,2231.32314879323
3,1522.59766286756,2019.02718205879,1839.31909676939,2228.18922382421
4,1523.05275780016,2018.08219567541,1838.46915621105,2225.64853394607
5,1523.23879973921,2016.86803029435,1837.34789266401,2223.73423406768
6,1523.17533355599,2015.38569298586,1835.95555938319,2222.4547125379
7,1522.88052381001,2013.6362612574,1834.29251488461,2221.77312728444
8,1522.37238413475,2011.62080276682,1832.35922310381,2221.59913531014
9,1521.67014006653,2009.3403192031,1830.15625173438,2221.78946462378
10,1520.79591568232,2006.79572052262,1827.68426859327,2222.15566501819
11,1519.77703127387,2003.98782974386,1824.94403589842,2222.47790518429
12,1518.64938794872,2000.91741258577,1821.93640240884,2222.52282658816
13,1517.46278509628,1997.58522131745,1818.66229346706,2222.06236676088
14,1516.28976735068,1993.99203912617,1815.12269910059,2220.89080102191
15,1515.24119462511,1990.13871076976,1811.31866047894,2218.83948362393
16,1514.49531995411,1986.02614760287,1807.25125518326,2215.79141842027
17,1514.35571759463,1981.65530016888,1802.92158192139,2211.69832484147
18,1515.37475499996,1977.02709884038,1798.33074550594,2206.59923978897
19,1518.63140857501,1972.14237138859,1793.47984310037,2200.63228812747
20,1526.33223489261,1967.00175439828,1788.36995291738,2194.02542896296
21,1542.41490658701,1961.60562148994,1783.00212671402,2187.05707958048
22,1568.07226065525,1955.95405383964,1777.3773875485,2179.99592067199
23,1591.3070986121,1950.04687636014,1771.49673431724,2173.04589009574
24,1603.73314050351,1943.88377557982,1765.36115453536,2166.31902338052
25,1608.50392362547,1937.46450291555,1758.97164660344,2159.83912963342
26,1609.11395547167,1930.78915068496,1752.32925234892,2153.56351578613
27,1607.37475888244,1923.85846974329,1745.43509986693,2147.40814495479
28,1604.18263895131,1916.67417993964,1738.29045554991,2141.26801591421
29,1600.01066765724,1909.23921149425,1730.89678266538,2135.03091175637
30,1595.12845105815,1901.55781132083,1723.25580197116,2128.5859145121
31,1589.70054608582,1893.63545734957,1715.36954782117,2121.82886808036
32,1583.8331444465,1885.47854832393,1707.24041134003,2114.6666266067
33,1577.59762961692,1877.09387513416,1698.87116101739,2107.02124783544
34,1571.0431552926,1868.48792679742,1690.26493109687,2098.83455512877
35,1564.20372658531,1859.66613002288,1681.42517002037,2090.07274762066
36,1557.10241614498,1850.63215467771,1672.35554537468,2080.73005679308
37,1549.75405293343,1841.38742905734,1663.05980831908,2070.83004846007
38,1542.16709621056,1831.93099403444,1653.54162879511,2060.42336543218
39,1534.34508476147,1822.25978465583,1643.80442167128,2049.58164083029
40,1526.28786796327,1812.36936601981,1633.85119145549,2038.38864964859
41,1517.99269927751,1802.25507299623,1623.68442705558,2026.93073572848
42,1509.45515444076,1791.91341667393,1613.30607613418,2015.28851089969
43,1500.66968466809,1781.34353322909,1602.71761942668,2003.53086361021
44,1491.62937910367,1770.54837948966,1591.92024877959,1991.71120124296
45,1482.3241012516,1759.53535039978,1580.91513020517,1979.86532297369
46,1472.73537119325,1748.31603901938,1569.703708607,1968.01050944525
47,1462.82459979859,1736.90500159323,1558.28798975143,1956.14590638969
48,1452.50668419385,1725.31761848782,1546.67072470401,1944.25458605103
49,1441.58693024214,1713.56740175672,1534.85542933242,1932.30759220883
50,1429.58795555215,1701.66330615337,1522.84620087528,1920.26989440184
51,1415.15582673449,1689.60767586187,1510.64734352813,1908.10765856009
52,1393.20506359616,1677.39537724399,1498.26287622385,1895.79569367731
53,1338.16379102948,1665.01446107755,1485.69605170615,1883.32345451724
54,1265.65805867926,1652.44842701836,1472.94904663173,1870.69778277671
55,1238.28215908755,1639.67987218747,1460.02297074591,1857.94099254121
56,1222.98921481657,1626.69500158123,1446.91828136493,1845.08415505726
57,1211.24309159047,1613.48815777137,1433.63558300412,1832.15720048667
58,1200.98224086344,1600.06524212511,1420.17666116648,1819.17885571552
59,1191.4691370068,1586.44480275432,1406.54547792714,1806.14962070803
60,1182.35200567246,1572.65587143522,1392.74878887576,1793.04985211064
61,1173.4174750049,1558.73245465469,1378.79607002103,1779.84329830752
62,1164.50589172986,1544.70572968831,1364.69859395139,1766.48497378764
63,1155.47595898745,1530.59595843771,1350.46774871415,1752.93140379314
64,1146.18730094037,1516.40640041706,1336.11297848302,1739.15081885601
65,1136.49107272776,1502.1209731947,1321.63993509377,1725.13061516126
66,1126.22624857791,1487.70644194695,1307.0494693415,1710.87951757022
67,1115.2232754916,1473.11901065171,1292.33792554303,1696.42293430936
68,1103.32005980565,1458.31452199715,1277.49886980211,1681.79222825918
69,1090.39696863049,1443.26082456255,1262.52596630413,1667.01131459777
70,1076.4327836025,1427.94989012435,1247.41631590212,1652.0856068719
71,1061.56489579515,1412.40603555362,1232.17329191639,1636.99782232205
72,1046.10878463352,1396.68604087998,1216.80786594938,1621.71290450054
73,1030.49051759029,1380.86848996558,1201.3377153162,1606.19155395004
74,1015.10803116089,1365.03374276837,1185.78405040681,1590.40927552733
75,1000.20975955253,1349.24058854225,1170.16691462533,1574.37530905069
76,985.864302620298,1333.50745163953,1154.50034580923,1558.14360654726
77,972.014723512919,1317.80368165581,1138.78892292878,1541.80823968643
78,958.567072623794,1302.0522422976,1123.02677908913,1525.48088644396
79,945.47309387576,1286.14241474697,1107.19936203995,1509.25726467927
80,932.785330058703,1269.95113338202,1091.28741212481,1493.18600238342
81,920.667638139941,1253.37254774642,1075.27205970483,1477.25161995085
82,909.350693814435,1236.35402684054,1059.13971157046,1461.37523509311
83,899.045664979069,1218.93030500705,1042.88549919183,1445.42983541747
84,889.854796234166,1201.23777966486,1026.51448382954,1429.26573666977
85,881.716505544349,1183.48914879068,1010.04049396771,1412.74406225647
86,874.397179990347,1165.90699665282,993.483221133032,1395.77659078306
87,867.520529757814,1148.64451735008,976.864706007412,1378.36482255429
