"Theta [deg]","dB(GainPhi) [] - Freq='28GHz' Phi='0deg'","dB(GainPhi) [] - Freq='28GHz' Phi='90deg'","dB(GainTheta) [] - Freq='28GHz' Phi='0deg'","dB(GainTheta) [] - Freq='28GHz' Phi='90deg'"
-180,-22.1206147350978,-8.17415593875366,-8.17415593875365,-22.1206147350976
-179,-20.91413537397,-8.20236947877192,-8.32359668710343,-23.0931941247703
-178,-19.8615017254862,-8.17705004938228,-8.5432096930993,-24.8663997585655
-177,-18.9342260748003,-8.11201772582844,-8.8354235353739,-27.8641706026042
-176,-18.1110271311735,-8.0222127049974,-9.20293633169985,-33.4257062725524
-175,-17.3758761981986,-7.91992729583618,-9.64824571501356,-47.9360304340185
-174,-16.7165686962646,-7.81319850319985,-10.1726638461669,-33.941577128547
-173,-16.1237169593994,-7.70611991167325,-10.7743514830611,-28.3496674560917
-172,-15.5900417059014,-7.60028988135613,-11.4445481443924,-25.4567325981895
-171,-15.1098684040221,-7.49653995431941,-12.160760276818,-23.8499688588384
-170,-14.6787635478423,-7.3962535440487,-12.8758576152761,-23.107829914928
-169,-14.2932669872924,-7.30187927932481,-13.5051833564233,-23.0885818599499
-168,-13.950690749594,-7.21660129055039,-13.9240534368207,-23.7925687959483
-167,-13.6489642355542,-7.14345012497036,-14.000659536956,-25.361711425896
-166,-13.3865119045738,-7.08431952317145,-13.6688862415639,-28.2125942528632
-165,-13.1621536993329,-7.03936067860267,-12.9774602428053,-33.6757355486278
-164,-12.9750212351012,-7.00709255161392,-12.0535940936589,-43.3449253774947
-163,-12.8244846572085,-6.98534265882583,-11.0279396109873,-32.6158910176747
-162,-12.7100863545438,-6.97284731296982,-9.99360393981954,-27.2867148688722
-161,-12.6314786058069,-6.97104425548928,-9.00450385008229,-24.3147152433026
-160,-12.5883628671242,-6.98540286617843,-8.0877832735692,-22.5252604481159
-159,-12.5804288913937,-7.02569390998067,-7.25539645642356,-21.5230330915913
-158,-12.6072922972576,-7.10490691510024,-6.51159065647902,-21.1473496860696
-157,-12.6684296806352,-7.23687592248661,-5.85711219337146,-21.3412104044692
-156,-12.7631110058188,-7.43280391920049,-5.29142187822816,-22.1120419740122
-155,-12.8903299778231,-7.69669381226865,-4.81381878860079,-23.5185420876418
-154,-13.0487345658945,-8.01944393909315,-4.42399215275287,-25.6335492947128
-153,-13.23656201528,-8.37173184128845,-4.12228107380021,-28.2427175239199
-152,-13.4515857009809,-8.69804402826742,-3.90978765262002,-29.5895794477942
-151,-13.6910850277856,-8.91920803209571,-3.78841652516543,-27.8328233400307
-150,-13.9518538805827,-8.95422791628888,-3.76087328973312,-25.2539384707902
-149,-14.2302668543028,-8.7603596823983,-3.83062808976003,-23.2604929317976
-148,-14.5224237509978,-8.36246573709258,-4.00182722961401,-21.9650697137076
-147,-14.8243889153859,-7.8414636568384,-4.27910497288536,-21.2855802291496
-146,-15.1325300756548,-7.29484167039641,-4.66719642624308,-21.1608360173894
-145,-15.4439401607445,-6.80519070624525,-5.17015958116226,-21.5678690266704
-144,-15.7568974758482,-6.43024904891146,-5.78984680965991,-22.5092720044151
-143,-16.0712920974952,-6.20613318634805,-6.52298421000938,-23.9668928200868
-142,-16.3889303956844,-6.15363684261778,-7.35584037917092,-25.7173235749248
-141,-16.7136343331997,-6.28274370487753,-8.25534787036546,-26.8594262148562
-140,-17.0510779082068,-6.59381589572733,-9.15715053443871,-26.205780403895
-139,-17.4083378599452,-7.07467426094633,-9.95778642122727,-24.3662075621663
-138,-17.7931596106527,-7.69254186860631,-10.5307173270882,-22.5483660379146
-137,-18.2129345763249,-8.38080877655635,-10.783305916026,-21.1757887359109
-136,-18.6733462186717,-9.02726912049308,-10.7210244210996,-20.2977682428538
-135,-19.176585370915,-9.48644097800327,-10.4462056219751,-19.8868668571853
-134,-19.7190112906631,-9.64253232972187,-10.0927518777527,-19.9135170127551
-133,-20.2882615545404,-9.49086170238323,-9.76969767783694,-20.3538977145287
-132,-20.8603158973538,-9.14323991778035,-9.545338836013,-21.1715926055272
-131,-21.3981512533219,-8.74982304358669,-9.45389890544156,-22.2626370480018
-130,-21.855134598664,-8.43067690264885,-9.50489137545105,-23.3392151448296
-129,-22.1862967066909,-8.25823067885044,-9.68768843872212,-23.8625594643856
-128,-22.3659258322835,-8.26620812063493,-9.97059893161088,-23.4515620813421
-127,-22.4017574241681,-8.46003867729561,-10.2967949686807,-22.4076389824918
-126,-22.3347397354723,-8.82008245721853,-10.5834079214818,-21.2830754354652
-125,-22.2247043734333,-9.29738588103831,-10.7351538544099,-20.3951107366671
-124,-22.1331942793596,-9.80685488451533,-10.6795622803179,-19.8549785551644
-123,-22.1128183824799,-10.2317153679289,-10.4057607557239,-19.6870668198265
-122,-22.2042927362094,-10.4596135274198,-9.96989827532036,-19.883540299833
-121,-22.437811263379,-10.4454857957066,-9.46104316992986,-20.4112466109157
-120,-22.8353736073225,-10.2442645934036,-8.96187888185134,-21.1832424762643
-119,-23.4118709827787,-9.97363834363624,-8.52975058706402,-21.9948397833393
-118,-24.1730742125544,-9.75142709606078,-8.1955680864624,-22.4830272875089
-117,-25.1076047921394,-9.66159683431752,-7.9693006278273,-22.3146643427462
-116,-26.1678042917097,-9.75010475642007,-7.84544992896301,-21.5464279563633
-115,-27.2355260967242,-10.0295139237147,-7.80689308043338,-20.5468040154752
-114,-28.0923330657503,-10.478690588434,-7.82781522185735,-19.6292709481727
-113,-28.477393483672,-11.0337965850598,-7.87711769216569,-18.9431965763263
-112,-28.2858559659196,-11.5775023321504,-7.92337708946646,-18.5321933884917
-111,-27.6765982218337,-11.9527003327519,-7.94116503250565,-18.3866222027828
-110,-26.9094521063224,-12.033541810655,-7.91672377831437,-18.4624127189728
-109,-26.1728789702179,-11.8180220239956,-7.85013614074724,-18.6793527158312
-108,-25.5584444112245,-11.4316278650769,-7.75260304584874,-18.9158745278703
-107,-25.0967404011439,-11.0374639384592,-7.64029552107797,-19.0260928823751
-106,-24.7884864795138,-10.763075971833,-7.52787217230073,-18.9008140376919
-105,-24.6211295838647,-10.6857793847473,-7.4241039607224,-18.5371817384238
-104,-24.5762896842228,-10.845274949445,-7.33042424616047,-18.0362768149901
-103,-24.6326674019501,-11.2561007906681,-7.24206564124654,-17.5309626821615
-102,-24.7667961602246,-11.9107618550195,-7.15097692473507,-17.1250556793873
-101,-24.9527684203311,-12.7710022641929,-7.04949267168914,-16.8764591550116
-100,-25.1616688813263,-13.7468856790691,-6.93354576340747,-16.802771838347
-99,-25.36159414505,-14.6764046928048,-6.80429953236812,-16.8880735261343
-98,-25.5194521716055,-15.3546001876883,-6.66767929714046,-17.0847696795346
-97,-25.605543197457,-15.6602413366236,-6.53218747316339,-17.3148786273488
-96,-25.6004660210885,-15.6726244413246,-6.40602162420916,-17.4824342544977
-95,-25.5014791893101,-15.6089792781058,-6.29454269440881,-17.507328530588
-94,-25.3243497552984,-15.6811798931239,-6.19874031135981,-17.3678778412079
-93,-25.0990229698129,-16.0375933971297,-6.11490246518588,-17.1142385499662
-92,-24.8614415594385,-16.7778792740734,-6.03542429892269,-16.8380493308115
-91,-24.6455743990902,-17.977338193233,-5.9505408816229,-16.6300492964402
-90,-24.4781974677108,-19.6790199623683,-5.85061662216275,-16.556226457968
-89,-24.3766038941266,-21.7632640688879,-5.72844025905056,-16.6527534390773
-88,-24.3482130664319,-23.4706255691484,-5.5808799993405,-16.9269791403639
-87,-24.3910861067688,-23.3552551365257,-5.40940875878159,-17.3553635021036
-86,-24.4949224094789,-21.6778726069839,-5.21941856242892,-17.8760321314517
-85,-24.6426788712623,-19.8420106446709,-5.01868769788713,-18.3827030629824
-84,-24.8132450992642,-18.3703887490976,-4.81558283095385,-18.7406433676011
-83,-24.9854068263385,-17.2696034961563,-4.6174973497007,-18.8449243865197
-82,-25.1425350040028,-16.4166554438075,-4.42978292354974,-18.6893725623726
-81,-25.2764249326348,-15.6628822824901,-4.25520638551701,-18.3683934418211
-80,-25.388412330454,-14.8771492671144,-4.09385043682028,-18.0084415390596
-79,-25.4869548487622,-13.9875711607268,-3.94336362260003,-17.7061848440249
-78,-25.5826331205545,-13.0009722787795,-3.79949544480743,-17.5089459905954
-77,-25.6825922741466,-11.9783532620067,-3.6568717850556,-17.4191319537434
-76,-25.7862901088241,-10.9900997222289,-3.50994410646374,-17.4033267640612
-75,-25.8837418101017,-10.0860457254545,-3.35398574885543,-17.4025174269963
-74,-25.9569748151265,-9.28746568838866,-3.18594510938712,-17.3486455182934
-73,-25.9849512697262,-8.59058621963336,-3.00495100447623,-17.1899084930468
-72,-25.9510411402122,-7.97317728112501,-2.81233534979588,-16.9143123617147
-71,-25.850255043318,-7.40185596636765,-2.61117736049979,-16.5536951628921
-70,-25.6925648847695,-6.84057966481142,-2.40551804375223,-16.1651786923089
-69,-25.5005146284077,-6.26016007788191,-2.19947510501735,-15.8065143202835
-68,-25.3028051385451,-5.64624215610702,-1.99647988381435,-15.5205707466902
-67,-25.1273638847072,-5.00205752863325,-1.79878357574825,-15.3308849753731
-66,-24.9963999849831,-4.34457821781848,-1.6072853695403,-15.2431726195295
-65,-24.9238855053444,-3.69664419741997,-1.4216549570842,-15.2484773830023
-64,-24.9146498132878,-3.07925709673534,-1.24066899368559,-15.3264281894941
-63,-24.9641342561354,-2.50665970357349,-1.06265432396923,-15.4489427543766
-62,-25.0583258296145,-1.98449146264105,-0.885926489321424,-15.5852571331283
-61,-25.1740579455535,-1.51015221947403,-0.709128716262617,-15.7084150115574
-60,-25.2805298052681,-1.07450738911427,-0.531412180789163,-15.8016682992359
-59,-25.3432314787757,-0.66443663514259,-0.352445600549981,-15.8619735972464
-58,-25.3308177130439,-0.265910183927917,-0.172288164427778,-15.8986062440605
-57,-25.2234305498855,0.132857446567403,0.00880926646852361,-15.9276292736512
-56,-25.0187084014508,0.538881434354197,0.190601767206717,-15.9650941621063
-55,-24.7319453456691,0.953239599680489,0.372987712504702,-16.0217340999079
-54,-24.3903896620464,1.37158865371254,0.556054460928659,-16.1004049097953
-53,-24.0252290035469,1.78603487659764,0.740031917456593,-16.1962767018845
-52,-23.6650920793597,2.18756804445373,0.925179199039101,-16.2992995611048
-51,-23.3326539423478,2.568256704134,1.11164466324645,-16.398283579264
-50,-23.0438653795256,2.92272614714234,1.29934211650223,-16.4855641826609
-49,-22.8086250936898,3.24880682523459,1.48787728962755,-16.560783622262
-48,-22.6319331187486,3.5474650394669,1.67654236485282,-16.6324088961784
-47,-22.5150043736527,3.8222000485261,1.86437773325408,-16.7165497400097
-46,-22.4561507308757,4.07809025234948,2.05028453027753,-16.833885261105
-45,-22.4514151856309,4.32066612745893,2.23316243857876,-17.006115950332
-44,-22.4950146519394,4.55480161240106,2.41204572622994,-17.2530225693612
-43,-22.5796702993595,4.78382691926167,2.58621505989742,-17.5904191372483
-42,-22.6969058104891,5.00903598971168,2.7552705711362,-18.0286171251956
-41,-22.8373857801979,5.22967236748126,2.91916024626415,-18.5706739332024
-40,-22.9913491630065,5.44335116064976,3.07816509072142,-19.2096164925387
-39,-23.1491624794371,5.64676495707397,3.23284786012391,-19.924044474796
-38,-23.301972914043,5.83647327948417,3.38397539976619,-20.672513181189
-37,-23.4423892623875,6.00959643504097,3.53242610785389,-21.3899009599112
-36,-23.5650764424039,6.16429873241592,3.67909410264961,-21.9936348778174
-35,-23.66713949399,6.30001691457301,3.82480060971775,-22.4083503348541
-34,-23.748209103784,6.41744413824278,3.97022109718304,-22.6025827610704
-33,-23.8102139327941,6.51831312846347,4.11583398905899,-22.6082830750824
-32,-23.8569051264159,6.60504036267635,4.26189367877125,-22.5027919120488
-31,-23.8932510804729,6.68030335380141,4.40842744228895,-22.3718347004893
-30,-23.924828386119,6.74662749322677,4.55525314201039,-22.2833159663607
-29,-23.9573045919519,6.80605462500637,4.70201267899577,-22.279458624578
-28,-23.9960614045576,6.85994858460837,4.84821519052154,-22.3788721837733
-27,-24.0459640610312,6.90896322257923,4.99328399727725,-22.580330012351
-26,-24.1112549416983,6.95316210172877,5.13660209583357,-22.8649670937518
-25,-24.1955380525458,6.99224652153838,5.27755227655519,-23.1972406920767
-24,-24.3018211991365,7.02582928572054,5.41554941452401,-23.5273503307065
-23,-24.4325888196991,7.05368970155412,5.55006387175326,-23.7991072189878
-22,-24.5898862252612,7.07595825961812,5.68063609198955,-23.9653253706483
-21,-24.775402988874,7.09320100579793,5.80688328681309,-24.0056995220476
-20,-24.9905484957334,7.10639721615224,5.92849960094947,-23.9354651222137
-19,-25.2365161262102,7.11682493961762,6.04525135128129,-23.7979136544649
-18,-25.514334466085,7.12588465354099,6.15696892581164,-23.6472568674482
-17,-25.8249046542275,7.13490021673528,6.26353677647779,-23.533803526571
-16,-26.1690227353635,7.14493756132927,6.36488270534434,-23.4971408111923
-15,-26.5473847914004,7.15667493187861,6.46096737593298,-23.5658287289406
-14,-26.9605706243723,7.17034521729899,6.55177471484825,-23.7600781727918
-13,-27.408998628443,7.18575412540855,6.63730362574103,-24.0949986019985
-12,-27.8928398028753,7.2023619243445,6.71756123060329,-24.5834285372514
-11,-28.4118720333871,7.21940523613226,6.79255768781977,-25.2381691687522
-10,-28.9652461521736,7.23603114399412,6.86230251269013,-26.0737266741318
-9,-29.5511225643201,7.25141848261154,6.92680224130341,-27.1076476070308
-8,-30.1661225858853,7.26486852346346,6.98605922765583,-28.3612003374856
-7,-30.8045275984199,7.27585649894923,7.04007134064382,-29.8580111613521
-6,-31.4571675567329,7.28404403699897,7.08883232560256,-31.6153117750945
-5,-32.1100047073138,7.2892590536174,7.13233260823232,-33.6090220434061
-4,-32.7426050192968,7.2914534103995,7.17056034156779,-35.6578260210951
-3,-33.3270776594539,7.29064983509158,7.2035025245639,-37.1804591952413
-2,-33.828630859951,7.28688875416405,7.23114605045621,-37.3306800394459
-1,-34.209254013822,7.28018346062075,7.25347857197831,-36.1422844548867
0,-34.4352615808851,7.27048909752813,7.27048909752813,-34.4352615808883
1,-34.4868274513614,7.25768786269139,7.28216825712605,-32.7158984953142
2,-34.36470178804,7.24159009821146,7.2885081999235,-31.1265218717766
3,-34.0897230737192,7.22194883377895,7.28950210706917,-29.6831319407818
4,-33.6954651527521,7.19848404890501,7.28514332623221,-28.3777970061281
5,-33.2187262932487,7.17091239240817,7.27542415844066,-27.2047742245578
6,-32.6924154856932,7.13897821284439,7.26033435541778,-26.1631453484029
7,-32.1423122980049,7.10248231299743,7.2398594172123,-25.25430052259
8,-31.5867741244943,7.06130563977363,7.21397881590852,-24.4794730823956
9,-31.0378864322614,7.0154259872414,7.18266431095392,-23.8382921339039
10,-30.5029787393184,6.96492660928145,7.14587856338916,-23.3281211069107
11,-29.9859861879398,6.90999634899898,7.10357429689045,-22.9437806162879
12,-29.4884983270138,6.85092147844196,7.05569428844266,-22.6773732552897
13,-29.0105055163516,6.78806991685527,7.00217249459911,-22.5180783439294
14,-28.5509097401068,6.72186888645383,6.94293662330985,-22.4519024492774
15,-28.1078730945319,6.65277740425051,6.87791243796931,-22.4614560737797
16,-27.6790666660392,6.58125532653686,6.80703002110427,-22.5258836701263
17,-27.2618684435407,6.50773097788887,6.73023212199015,-22.6210964293208
18,-26.8535452490859,6.43256970756808,6.6474845590743,-22.7204334557019
19,-26.4514405334527,6.3560459922427,6.55878844103797,-22.7958168976691
20,-26.0531765067108,6.27832188049031,6.46419371100485,-22.8194223049398
21,-25.6568653471625,6.19943455782745,6.36381321505637,-22.7659067819628
22,-25.2613114076036,6.11929549564217,6.25783616656861,-22.615245599245
23,-24.8661769741884,6.03770294509278,6.1465395520488,-22.3559730420161
24,-24.4720811798205,5.95436840924026,6.0302957472488,-21.9879901482176
25,-24.0806069347502,5.86895621021772,5.90957444570957,-21.5235675606108
26,-23.6942034888778,5.78113348444373,5.78493702094928,-20.9855581624422
27,-23.3159889839948,5.69062608394443,5.65702172961463,-20.4031949350626
28,-22.9494731213182,5.59727418465621,5.5265187870773,-19.8070752577485
29,-22.598230656653,5.50108018140813,5.3941353445895,-19.2250124930354
30,-22.2655602379732,5.40224097478726,5.26055173713371,-18.6795729098472
31,-21.9541615039631,5.30115731488607,5.12637192813898,-18.1871976785308
32,-21.6658596372662,5.19841471229857,4.99207262097056,-17.7583688557515
33,-21.4014040272698,5.09473369634955,4.85795672390554,-17.3982764709043
34,-21.1603679869083,4.99089179143762,4.72411741018717,-17.1076314445164
35,-20.9411784232109,4.88762499933008,4.59041864518,-16.8834649877975
36,-20.7413036415874,4.7855218439555,4.45649666562174,-16.719892121638
37,-20.557617323492,4.68492679477105,4.32178462709082,-16.6088891768156
38,-20.3869306886046,4.58587073328433,4.18555983598437,-16.541151551746
39,-20.2266417099749,4.48804316177669,4.04701012627188,-16.5070652002979
40,-20.0753994758045,4.39081417670604,3.90531348979122,-16.497751758556
41,-19.9336446100715,4.29330512510852,3.75972334156548,-16.506055660999
42,-19.8038874363782,4.19449746298634,3.6096509150193,-16.5272742024381
43,-19.6906351377246,4.0933618985082,3.4547361762103,-16.5594339427298
44,-19.5999623237606,3.9889860630827,3.29489918496362,-16.6030051858495
45,-19.5388002380241,3.88067931299123,3.13036492765063,-16.6600853898902
46,-19.5140640089286,3.76803746882069,2.96165635935735,-16.733204869718
47,-19.5317336742624,3.65095741657289,2.78955293589178,-16.8239639445938
48,-19.5959689866693,3.52960038230946,2.61501555161707,-16.9317030017219
49,-19.7083001891972,3.40431214203349,2.43908361861301,-17.0523848404366
50,-19.8669253266031,3.27551707872674,2.26275566511306,-17.1778875405707
51,-20.0661766792868,3.14360924380635,2.08687027279846,-17.2959829087417
52,-20.2962957975487,3.00886572903466,1.91200776160709,-17.3913503074668
53,-20.5437523284616,2.87140443189749,1.73843289851995,-17.4478954571335
54,-20.7923848957298,2.73119950381632,1.56609370893497,-17.4522331355794
55,-21.0255160246896,2.58815470074961,1.39468116475642,-17.3974756122668
56,-21.2288090433561,2.44222013898403,1.22374076771051,-17.2858903332201
57,-21.3930940056076,2.29352485218377,1.0528129269409,-17.1291953776689
58,-21.516071156858,2.14248909272788,0.881568258027884,-16.9463506645295
59,-21.6021101365032,1.98987884847794,0.709899917709005,-16.7598904511637
60,-21.6602424792796,1.83677209229622,0.53794026408732,-16.5922314102588
61,-21.7012836156967,1.68442250961755,0.365984448997395,-16.4629033982347
62,-21.7352440546839,1.53403095861774,0.194327811600023,-16.3868935027072
63,-21.7697950472236,1.38646389567007,0.0230528594223182,-16.3738001432106
64,-21.8099531587266,1.24198376451817,-0.148172655566251,-16.4273783346546
65,-21.8586895506289,1.10006856513033,-0.320212538421535,-16.5451947171584
66,-21.9179494297137,0.959387791218107,-0.494428720720219,-16.7183755743036
67,-21.9895435380812,0.817968179489962,-0.672464503696406,-16.9317630839124
68,-22.0754970693625,0.673533691293178,-0.855859458305812,-17.1651222129005
69,-22.1776696646135,0.523954959512946,-1.04556236041648,-17.3961438752575
70,-22.2967279733726,0.367708429601019,-1.24145097092161,-17.6054813324233
71,-22.4307828862694,0.204232343948058,-1.44199308678438,-17.7827512056214
72,-22.5741547609211,0.0340768073190855,-1.6441865295115,-17.9310368593956
73,-22.7168039687652,-0.141222168885291,-1.84388737712752,-18.0674536775989
74,-22.844947078824,-0.319558833407504,-2.03656161904365,-18.2193254451176
75,-22.9431719395559,-0.498900905418029,-2.21836878998099,-18.417812923944
76,-22.9978346848702,-0.678011717782294,-2.38733195174428,-18.691338192972
77,-23.0007443429022,-0.857042210613276,-2.54423651776207,-19.0597878898882
78,-22.9516181114492,-1.03778523656806,-2.69291558201473,-19.5287402640766
79,-22.858151429677,-1.22346697374811,-2.83975012980657,-20.0821298275722
80,-22.7337640160193,-1.41808916776698,-2.99246459966946,-20.6729077558653
