"Theta [deg]","cang_deg(rEPhi) [] - Freq='28GHz' Phi='0deg'","cang_deg(rEPhi) [] - Freq='28GHz' Phi='90deg'","cang_deg(rETheta) [] - Freq='28GHz' Phi='0deg'","cang_deg(rETheta) [] - Freq='28GHz' Phi='90deg'"
-180,-1.63102187055798,0.239288032248616,0.239288032248631,1.51057078303181
-179,-1.64271733272777,0.164881563304646,-1.16323086890001,1.51132715651548
-178,-1.66412972266712,0.101544412087778,-1.41652555980895,1.51680261217327
-177,-1.69208544187388,0.0465443455841295,-1.49011518071134,1.52716023373018
-176,-1.72249137666264,-0.00223308183964382,-1.51433964983459,1.54265624276919
-175,-1.75057191207321,-0.0464370939297898,-1.51400786865864,1.56367683342877
-174,-1.77121700556267,-0.0873511760188292,-1.49414551195041,1.59080059827371
-173,-1.77935991462156,-0.125948582010677,-1.45011180305697,1.62490487512892
-172,-1.77028282363932,-0.162915790994941,-1.36056438206257,1.6673524487441
-171,-1.7398281584927,-0.19865652360257,-1.13250785315196,1.7203348397436
-170,-1.68462793485434,-0.233289547460592,-0.14830892566397,1.78754190980859
-169,-1.60256351263813,-0.266653583396756,1.03061676143699,1.87556247701089
-168,-1.49361821596131,-0.298330738833213,1.31488022785695,1.99704259919654
-167,-1.36093923102969,-0.327694877123266,1.44033119995689,2.17820565745528
-166,-1.2113089543534,-0.353983487195414,1.52736586058807,2.47494903764327
-165,-1.05400543065392,-0.376383278230136,1.6050123036875,2.97184026282712
-164,-0.898111003393621,-0.394114353569647,1.68544107882092,3.59295806541694
-163,-0.749916513352221,-0.40649790265575,1.77713708869893,4.05672957551795
-162,-0.611985467508276,-0.412997649312986,1.88925366103827,4.3377747008407
-161,-0.483812330595289,-0.413233008958403,2.03454692414417,4.52091395278601
-160,-0.363023267456347,-0.406968592133029,2.23227531303314,4.65550275311082
-159,-0.246335876105,-0.394088236041553,2.50807682025877,4.76462508960794
-158,-0.130074655131627,-0.374562007837199,2.87605995378591,4.85962185842284
-157,-0.0103401350109841,-0.34841275777755,3.29284575957657,4.94655726929418
-156,0.117011561400082,-0.315686209839151,3.66809084029106,5.02894959289171
-155,0.25643142706939,-0.276426243882253,3.96008530397097,5.10899984604386
-154,0.412610102525306,-0.23065536518368,4.18442699425676,5.18818967224321
-153,0.590014261308714,-0.178359389126517,4.3683403360538,5.26759532077461
-152,0.791663936498605,-0.119474921941329,4.53352062926635,5.34806545737341
-151,1.01700339513487,-0.0538780951961147,4.69655332204891,5.43033056072141
-150,1.25978635344257,0.0186269370573143,4.87234780316794,5.51507747239658
-149,1.50837102222065,0.0983210794554278,5.07720451106529,5.60300732182336
-148,1.74987394358403,0.185586040559937,5.33019230283736,5.69488808331866
-147,1.97542858355921,0.280923364500182,5.64800531408583,5.79161018122717
-146,2.18235560890552,0.384976459463987,6.02479966261303,5.89425307953321
-145,2.37288437236146,0.498553517217435,6.41302402704953,6.0041719674017
-144,2.55188754391478,0.62264571352381,6.75626350293307,6.12311611194541
-143,2.72532301476429,0.758428701775103,7.03666830394302,6.25339336831576
-142,2.89961462752975,0.907224829290113,7.26718466541587,6.39809552097953
-141,3.08162301860952,1.0703886387199,7.46751995014569,6.56138553205058
-140,3.27879548738181,1.24906440387384,7.6551718536518,6.74878685482176
-139,3.49899678751297,1.44377055124605,7.84555221855863,6.96722072966811
-138,3.74919189069714,1.65383003811475,8.05445704484116,7.22406242829274
-137,4.03193805688702,1.87682175487664,8.30053881655374,7.52382062695273
-136,4.34027620287709,2.1084162767007,8.60495163516499,7.86178877259551
-135,4.65635270269319,2.34294898539185,8.97967579906572,8.21947194054914
-134,4.95945670519498,2.57467226641595,9.39940975403767,8.57131596338435
-133,5.23724886931326,2.79908516023054,9.8004299845266,8.89948860668941
-132,5.48889992080722,3.01367056117608,10.138946752367,9.20013331126006
-131,5.7209691982558,3.21786193747502,10.4163409708635,9.47849861570194
-130,5.94296411522572,3.412541765297,10.6528612686564,9.74251470094978
-129,6.16526394512135,3.59945886524988,10.8687231594604,9.99936067252552
-128,6.3986537727004,3.78078014852737,11.0806665977104,10.2542982352181
-127,6.65402075772558,3.95881871030368,11.3034825131778,10.510450826311
-126,6.94051579532977,4.13589716191103,11.5516550511086,10.7689413387249
-125,7.26041992507039,4.31428840152355,11.8388500238941,11.0292890731592
-124,7.60225958381043,4.49618465887023,12.1722070299383,11.2900733738086
-123,7.94156045706236,4.68365743596284,12.5408633893898,11.5497507504726
-122,8.25494070606589,4.87858056954352,12.912579777812,11.8073789666029
-121,8.53289025324306,5.08250009951666,13.2544577560944,12.0630245472557
-120,8.77889262935553,5.29645657554011,13.5545074030055,12.3177909544448
-119,9.00251712893403,5.5208051317458,13.8191165314134,12.5735500090398
-118,9.21505228506383,5.75512946988165,14.0612895068639,12.8324948479824
-117,9.42864786483347,5.99837331271581,14.2941879598453,13.0965955957381
-116,9.65753495333533,6.24926542449772,14.5295603387646,13.3670187499262
-115,9.92014134201095,6.50698006078682,14.7776911599578,13.6436240641895
-114,10.2394144290231,6.7718292940413,15.0468593255604,13.9247501322107
-113,10.6314099486663,7.04572536998135,15.3412435370852,14.2075104362859
-112,11.0707848949646,7.33216355866615,15.6575599954451,14.4886106302998
-111,11.4815624706146,7.63542631013853,15.9836499630433,14.7653557580625
-110,11.8079592508625,7.9585961116514,16.3031955605709,15.0363723140719
-109,12.0470922366914,8.30032026483766,16.6042168645018,15.3017880028561
-108,12.213555787865,8.65203147413464,16.883489609883,15.562951294427
-107,12.3139967528658,8.99931589353116,17.1448324293532,15.8219321470595
-106,12.3389756823759,9.32835776661134,17.3954758617447,16.0809979794656
-105,12.2609310010866,9.63197271384327,17.6435355311359,16.3421526173473
-104,12.0589422391797,9.91039521880309,17.8967422178259,16.6067684602321
-103,11.8068377263455,10.1684887997504,18.1615765457133,16.8753475377356
-102,11.6498070619771,10.4129369827145,18.4420897179795,17.1474737819856
-101,11.6308744064314,10.6507254279644,18.7383041634436,17.4220084981082
-100,11.7209072549797,10.8886013775757,19.0451663789691,17.6975014618196
-99,11.8925525199054,11.1329039437083,19.3537683594952,17.9726791441004
-98,12.1291104856501,11.3892785452917,19.6551390242193,18.2468205292776
-97,12.4149182926471,11.6618988098551,19.9441034685901,18.5198900858402
-96,12.7283084424357,11.9520324259322,20.220627682058,18.7924172905694
-95,13.0445365459265,12.2564505461322,20.4888411410852,19.0652055569197
-94,13.3456138090201,12.5671825123405,20.7554451236932,19.338985181729
-93,13.6252946119552,12.8739663466437,21.0285131443447,19.6141170052776
-92,13.8860187402077,13.1682971215948,21.3165751298013,19.8904325212654
-91,14.1338574674118,13.4460623590159,21.6272087300931,20.167262065844
-90,14.3753724640797,13.7074135808662,21.964220443937,20.4436439220301
-89,14.6163466841377,13.9550939802836,22.3237102862281,20.7186349912827
-88,14.8613752841846,14.1927856500535,22.6925822193489,20.9915995535568
-87,15.1136614252852,14.4240729542761,23.053886862195,21.2623703692186
-86,15.3747831958676,14.6519487601151,23.395807333984,21.5312429847936
-85,15.644486315146,14.8786471278661,23.7156704057524,21.7988326112577
-84,15.9207348060522,15.1056546408444,24.0174791937326,22.0658588899558
-83,16.2002435896635,15.3338318613615,24.3077615316372,22.332926849205
-82,16.4794522867112,15.5636124831336,24.5927080174728,22.600359376604
-81,16.7555555815964,15.7952464121145,24.8766768692547,22.8681189788464
-80,17.0271341517048,16.0290368721421,25.1614824226617,23.1358344830772
-79,17.2942097217979,16.2655128062794,25.4462804208552,23.4029195417059
-78,17.557872460489,16.5054862298597,25.7281746397538,23.668740588659
-77,17.819737250515,16.7499652193259,26.0034932970982,23.9327764481456
-76,18.0814118677315,16.9999190050392,26.2692239466489,24.1947201707915
-75,18.3440607897862,17.2559248179826,26.5239493425952,24.4545012135032
-74,18.60810598806,17.5177790439425,26.7680211051168,24.7122368512206
-73,18.8731094622963,17.7842249606937,27.0031934861348,24.9681415755156
-72,19.1378792446715,18.0529839102117,27.2320870503223,25.2224282268705
-71,19.4007897560568,18.321190170826,27.4577147642412,25.4752288208426
-70,19.6602200118042,18.5861125268945,27.6831235890228,25.7265522172533
-69,19.9149543661606,18.8458543627299,27.9111041315359,25.9762837188288
-68,20.1644154942346,19.0997449513377,28.143899133994,26.2242204559853
-67,20.4086897576523,19.348342918486,28.3828737563377,26.4701279094297
-66,20.6483909437652,19.593165983535,28.62818527134,26.7137991153764
-65,20.884442363118,19.8363094625244,28.8785865981099,26.9550999208817
-64,21.1178453802758,20.0800556064144,29.1315484327224,27.1939899809088
-63,21.349475539486,20.3264995905588,29.3837908344827,27.4305172253474
-62,21.579927840966,20.5771818289091,29.6320777099951,27.6647903904114
-61,21.8094248707833,20.832733574421,29.8739349606571,27.8969383109673
-60,22.0377985402732,21.0926021145408,30.1080036885127,28.1270659526613
-59,22.2645491132013,21.3549830869066,30.3339816718611,28.3552164110086
-58,22.4889699473969,21.6170781937634,30.5523094311986,28.5813461110466
-57,22.710307608545,21.875666524905,30.7637979968718,28.8053176258498
-56,22.9279154797923,22.1277922443361,30.9693276663113,29.0269110915653
-55,23.1413629582184,22.3712942179757,31.1696660687026,29.2458514798762
-54,23.3504802345479,22.6050136365568,31.3654028630804,29.4618457149783
-53,23.5553404709609,22.8287054594978,31.5569752935027,29.6746217080797
-52,23.7561967371549,23.0427927784484,31.7447505239633,29.8839614679715
-51,23.9533965172234,23.2480997285752,31.9291296737385,30.0897224743806
-50,24.1472943743015,23.445637774404,32.1106428157352,30.2918446948797
-49,24.3381779543756,23.6364638799119,32.2900126416656,30.490343890533
-48,24.526217044327,23.8215990998027,32.4681740043438,30.6852943000713
-47,24.7114407297049,24.0019875979133,32.6462433957665,30.8768050380101
-46,24.8937433417418,24.1784782403028,32.8254347704009,31.0649946917533
-45,25.0729153629299,24.3518162606456,33.0069178103253,31.2499680074917
-44,25.248691147991,24.5226376532177,33.1916176141822,31.4317975749092
-43,25.4208023912855,24.6914629276093,33.3799694349252,31.610512302029
-42,25.589025926119,24.858689668614,33.5716746511129,31.786093343055
-41,25.7532169669672,25.0245852283394,33.7655469588743,31.9584770783689
-40,25.9133233755131,25.1892820022756,33.9595578919348,32.1275638277022
-39,26.0693813154997,25.3527781262208,34.1511427086603,32.2932303109726
-38,26.2214963169562,25.514946012081,34.337706319276,32.4553435598261
-37,26.3698156403701,25.6755499097349,34.5171515777777,32.6137740765631
-36,26.5144980560428,25.8342718368733,34.688241392257,32.7684064950573
-35,26.655686287951,25.9907432230488,34.8507122611744,32.9191466911055
-34,26.7934859759516,26.1445780951233,35.0051853918864,33.0659250415001
-33,26.9279534456994,26.2954031278231,35.1529834297032,33.2086961784695
-32,27.0590930102447,26.4428805845012,35.2959479096269,33.3474360239981
-31,27.1868630515806,26.5867218197422,35.4363072270258,33.4821370864639
-30,27.311188862594,26.7266910322975,35.5766028110239,33.6128029914145
-29,27.4319793411911,26.8626007302981,35.7196513716759,33.7394430644451
-28,27.5491442852613,26.9943014923779,35.8684953511763,33.8620675585793
-27,27.6626093087639,27.1216689674142,36.0262599270889,33.980683880459
-26,27.7723261985464,27.2445907796459,36.1957908837496,34.0952939583636
-25,27.8782776322341,27.3629553334904,36.3789280221246,34.2058927307035
-24,27.9804762973418,27.4766436809094,36.5753857197682,34.3124676216175
-23,28.0789593520308,27.5855248018183,36.7816180139606,34.4149988068741
-22,28.1737797183063,27.6894539625631,36.9906032242559,34.5134600498778
-21,28.2649958850432,27.7882733081394,37.1933784581003,34.6078198939773
-20,28.3526617889238,27.8818135150013,37.3817831760784,34.6980430234059
-19,28.4368180376204,27.9698951493108,37.5506016934941,34.7840916422012
-18,28.5174853390078,28.0523282672391,37.6979408459916,34.8659267611901
-17,28.5946605789589,28.1289086378074,37.8242797937776,34.9435093222776
-16,28.6683156014237,28.1994085693885,37.9312153536715,35.0168011233823
-15,28.7383984235133,28.2635593426713,38.0204814996609,35.0857655345366
-14,28.8048363883673,28.3210200442803,38.0932819057046,35.1503680154019
-13,28.8675406318831,28.3713227257548,38.1496830466926,35.2105764571403
-12,28.9264112157908,28.4137727868759,38.1875355623965,35.2663613782835
-11,28.9813423451724,28.4472568707626,38.1993383493851,35.3176960062535
-10,29.0322272170448,28.4698399876811,38.1593320029124,35.3645562748815
-9,29.078962204345,28.4778214196591,37.9332599836898,35.4069207648803
-8,29.1214502328604,28.4631651158933,36.4762405622871,35.4447706097649
-7,29.1596033309375,28.4048463448328,35.6919241874342,35.4780893849483
-6,29.1933444089604,28.2286933713677,35.5448395698538,35.5068629932011
-5,29.2226083568162,27.5530543214336,35.4812289131508,35.5310795556607
-4,29.2473425431541,26.3537888804408,35.4337786606463,35.5507293142703
-3,29.2675067771313,25.9801335703316,35.3840757006279,35.5658045489599
-2,29.2830727697352,25.8501635094523,35.324102866537,35.5762995109961
-1,29.2940231225564,25.782315769115,35.2498699254741,35.582210372652
0,29.3003498853707,25.7359274644373,35.1607054252067,35.5835351925503
1,29.3020527604995,25.6976273149742,35.0599060010744,35.5802738956077
2,29.2991370847075,25.6618353812559,34.9546896028196,35.5724282663211
3,29.2916117760186,25.6258455117502,34.8541164147048,35.5600019540873
4,29.2794874784311,25.58820659703,34.7656623642253,35.5430004892368
5,29.2627751577793,25.5480845366266,34.6928161986773,35.5214313084003
6,29.2414853857759,25.5049759991632,34.6350158683797,35.4953037876525
7,29.2156284903865,25.458566834093,34.5891069411862,35.4646292815218
8,29.1852156488734,25.4086565026793,34.5509472710178,35.4294211653737
9,29.1502608611832,25.3551152547515,34.5164813082389,35.3896948778317
10,29.1107835786394,25.297858704501,34.4822519741579,35.3454679587565
11,29.0668115960678,25.2368322050183,34.4455407318434,35.2967600768427
12,29.0183836716918,25.1720010155969,34.4043184251057,35.2435930391237
13,28.9655512515062,25.1033440200922,34.3571258810819,35.1859907726151
14,28.9083786782189,25.0308496589332,34.3029484945114,35.1239792660847
15,28.8469413877632,24.9545132168314,34.241113692454,35.0575864576799
16,28.7813218498987,24.8743348715668,34.1712202627356,34.9868420521757
17,28.711603376127,24.7903180640654,34.0930982153376,34.9117772504089
18,28.6378623467517,24.7024678565284,34.0067926034293,34.832424373679
19,28.560159819384,24.6107890402145,33.9125617538951,34.7488163684024
20,28.4785337817311,24.5152838608753,33.810878464162,34.6609861820759
21,28.3929934226285,24.4159493616483,33.7024220873531,34.5689660116985
22,28.3035166713153,24.3127745055598,33.5880510574605,34.4727864410468
23,28.2100518937874,24.2057374285904,33.4687502041467,34.3724755040148
24,28.1125240733418,24.0948033752298,33.3455548224114,34.2680577371795
25,28.0108451024533,23.9799240563209,33.2194616730952,34.1595533141878
26,27.9049270528399,23.8610393065672,33.091342545618,34.04697738427
27,27.7946965656212,23.7380819561848,32.9618762056105,33.9303397621235
28,27.6801079393575,23.6109867041746,32.8315095415111,33.8096451297431
29,27.561152252607,23.4797034159464,32.7004511059455,33.6848939042057
30,27.4378601165042,23.3442145960032,32.5686933453054,33.5560838901149
31,27.3102965382009,23.2045557757038,32.4360557223947,33.423212763597
32,27.1785478680582,23.0608362724119,32.3022398193846,33.2862813221617
33,27.0427026615684,22.9132564538577,32.1668881926268,33.1452972840316
34,26.9028300635016,22.7621167226636,32.0296398288574,33.0002792450566
35,26.7589604954953,22.6078135033825,31.8901756724625,32.8512602283484
36,26.6110736056145,22.4508190553239,31.7482478426752,32.6982901331862
37,26.4590975039351,22.2916449813453,31.6036865326499,32.5414363574957
38,26.3029214271929,22.130793161877,31.4563801603774,32.3807819825917
39,26.14242145944,21.9687012000475,31.3062277791783,32.21642120018
40,25.9774960961346,21.8056909643552,31.1530678176893,32.0484521198114
41,25.8081055745501,21.6419278264963,30.9965926927964,31.8769676566949
42,25.6343064466423,21.4773951940774,30.8362632393382,31.7020457520702
43,25.4562716209218,21.3118852441479,30.6712397221162,31.5237405834681
44,25.2742871125198,21.145003790606,30.5003488326641,31.3420765565158
45,25.0887208445282,20.9761858474347,30.3221114283156,31.1570466609207
46,24.8999657700126,20.8047188356505,30.134865847793,30.9686162179547
47,24.7083674218283,20.6297721639081,29.9370322950003,30.7767322066798
48,24.5141517476018,20.450434522762,29.7275562371969,30.581337338686
49,24.3173703190258,20.2657630312999,29.5065043259841,30.3823869963482
50,24.117876428746,20.0748505066185,29.2756315409579,30.1798662335436
51,23.9153391371557,19.8769171623504,29.0385539663704,29.9738034818155
52,23.7092955995107,19.6714287150312,28.8001784290139,29.7642776601679
53,23.4992363700366,19.4582316179261,28.5654546943412,29.5514162593259
54,23.2847133035611,19.2376774626111,28.3380532248491,29.3353836908444
55,23.0654536593511,19.0106884452038,28.1196312321976,29.1163614832862
56,22.841456730861,18.7787093464531,27.9098585151723,28.8945241786499
57,22.6130437444923,18.5435162811528,27.7069029097847,28.67001629307
58,22.3808342876251,18.306909336688,27.5079979867899,28.4429358807288
59,22.145639039308,18.0703752108572,27.3098930211738,28.213328936848
60,21.908287413218,17.8348243890355,27.1091669737394,27.9811964404277
61,21.6694371085614,17.6004711640184,26.9024840819369,27.7465129181828
62,21.4294237981421,17.3668636362658,26.6868969282417,27.5092526848653
63,21.1881965478162,17.1330268253023,26.4602831556658,27.2694179156318
64,20.9453572006842,16.8976723242609,26.2219147217526,27.0270618165665
65,20.7002954556914,16.6594405614618,25.9729758867725,26.7823006684871
66,20.4523937494053,16.4171548314385,25.716640365118,26.5353105818255
67,20.201263660484,16.17006451439,25.4573453335319,26.2863082501112
68,19.9469611432277,15.918036252847,25.1993600543036,26.0355191385696
69,19.6901130405205,15.6616304441376,24.945306521321,25.7831402244062
70,19.4318886735967,15.4020042929049,24.6953013232117,25.5293063797189
71,19.1737888416462,15.140634680787,24.4468350120054,25.2740690433671
72,18.9172980867561,14.8789395820158,24.1950381325126,25.0173931258693
73,18.6635132218477,14.6179376964464,23.932993522222,24.7591739999786
74,18.4128711780505,14.3580711820932,23.6521405422805,24.499271990923
75,18.1650456305749,14.0992370103662,23.3434617252473,24.2375577641584
76,17.9190106286737,13.8409876613043,23.0008832073307,23.9739588962042
77,17.6732304779957,13.5828155420017,22.6276134526975,23.7084962461706
78,17.4259398618598,13.3244276494398,22.2407383827318,23.4412994030026
79,17.1755026805413,13.0659285272763,21.8645750056129,23.1725944198374
80,16.9208464539364,12.8078532702397,21.5158319646279,22.9026643689797
81,16.6619303511634,12.5510344775135,21.1971183910798,22.63179225797
82,16.4001131139937,12.2963454381952,20.9016185159368,22.3602031014051
83,16.1382003690911,12.0444108473242,20.6194454760988,22.0880238772869
84,15.8799975923298,11.7953838768068,20.3411487748605,21.8152751886818
85,15.6294460566733,11.5488495179985,20.0592231583365,21.5418981818898
86,15.3897071567581,11.3038584564805,19.7690923356227,21.2678081646417
87,15.1625920572253,11.0590584903306,19.4700555422017,20.9929562824038
88,14.9484711847741,10.8128835520101,19.1656208034806,20.7173758083498
89,14.7465146643206,10.5637719448309,18.8622272757183,20.4411925567543
90,14.5550269988681,10.3103966096965,18.5663794852757,20.1645905671322
