"Theta [deg]","dB(rETheta) [] - Freq='28GHz' Phi='0deg'","dB(rETheta) [] - Freq='28GHz' Phi='90deg'"
-180,-11.3859315554365,-46.0715028053783
-179,-11.4403258221782,-36.1880349904296
-178,-11.5589001430173,-31.9925527270807
-177,-11.7448916592148,-29.6152256841103
-176,-12.0031065076738,-28.2587938635484
-175,-12.3401371662428,-27.6460318058392
-174,-12.7646352217569,-27.6804521505499
-173,-13.2875977011407,-28.367989435471
-172,-13.9225233922349,-29.812940347262
-171,-14.6850103023492,-32.258334566679
-170,-15.5905694971671,-36.0268525532795
-169,-16.6472353269403,-38.9073544406049
-168,-17.8339145171684,-35.3222547083734
-167,-19.0450289913241,-31.362260937138
-166,-19.9913562046396,-28.6906440336389
-165,-20.1969027373261,-26.9528469116244
-164,-19.4055732121224,-25.8974006406464
-163,-17.9284609190919,-25.3915021186212
-162,-16.2356883447416,-25.367342835566
-161,-14.5952609261426,-25.7899827798685
-160,-13.1025507244242,-26.6272770662935
-159,-11.7767227819626,-27.7896641293282
-158,-10.6112722003101,-28.9894804209961
-157,-9.59340064188739,-29.5997459364655
-156,-8.7105453127514,-29.1007216217714
-155,-7.95225870373151,-27.839230777935
-154,-7.3105041107964,-26.4823440454737
-153,-6.77946027898468,-25.3770535806241
-152,-6.35521495333254,-24.6206057267072
-151,-6.03547043422685,-24.215154919412
-150,-5.81929124014763,-24.1295481379281
-149,-5.70688919173417,-24.3091437152746
-148,-5.69942553473083,-24.662012914467
-147,-5.79879713137141,-25.0383622580083
-146,-6.00735560692915,-25.239067903373
-145,-6.32747691584204,-25.1037060591333
-144,-6.76084444521328,-24.6322689282001
-143,-7.307220240376,-23.981095085805
-142,-7.9623528649609,-23.3384289152843
-141,-8.71455066894798,-22.8388735211359
-140,-9.53954406469966,-22.55582195889
-139,-10.3941819290872,-22.5209557364597
-138,-11.2123598289128,-22.738321489035
-137,-11.911373224999,-23.1849666490234
-136,-12.4173847183987,-23.7966341273087
-135,-12.7027442858788,-24.4419570064405
-134,-12.8046331448106,-24.9139233774082
-133,-12.8050789479333,-25.0071154012156
-132,-12.7925636261749,-24.676306727064
-131,-12.8351385942722,-24.0787817866721
-130,-12.9713452058872,-23.4327226042564
-129,-13.2095091334076,-22.8951992911991
-128,-13.527060241748,-22.5445869962091
-127,-13.868415430986,-22.4037534809099
-126,-14.1479953977392,-22.4580009869298
-125,-14.2712121714652,-22.659739901626
-124,-14.1772476269927,-22.9259726422189
-123,-13.8760974134296,-23.1426254495597
-122,-13.4420556338743,-23.1951736486478
-121,-12.9711455347539,-23.0253915020084
-120,-12.5434681982973,-22.6673778936661
-119,-12.2093100511395,-22.2206804648257
-118,-11.9906947439362,-21.7920280208156
-117,-11.8867488729103,-21.458418764324
-116,-11.8778353386107,-21.2598922370846
-115,-11.9285388133528,-21.2048404789102
-114,-11.9921336114176,-21.2755925666995
-113,-12.0195955163059,-21.431720313503
-112,-11.9733941358726,-21.6144374802035
-111,-11.8404403874339,-21.7580096099675
-110,-11.6355285487303,-21.8108241518804
-109,-11.392446819212,-21.7575350202837
-108,-11.1492196408679,-21.6254438629558
-107,-10.9360255482907,-21.4691026112287
-106,-10.7693290538602,-21.3460886344546
-105,-10.6511715081571,-21.2991014011514
-104,-10.5715450688965,-21.3479375077948
-103,-10.5126232738652,-21.4872212122327
-102,-10.454252174259,-21.6863855055516
-101,-10.3797783097558,-21.8927435223825
-100,-10.2805022899516,-22.0422992878033
-99,-10.1569817466461,-22.0812650417376
-98,-10.0167225754506,-21.9903589241741
-97,-9.86964087428592,-21.7939599180863
-96,-9.72355270103284,-21.5458695384197
-95,-9.58143827502096,-21.3043991942867
-94,-9.44112085036517,-21.1137774993133
-93,-9.29707065620075,-20.9968504269873
-92,-9.14344097637034,-20.9551367441937
-91,-8.97708669324592,-20.9720186578521
-90,-8.79932428945583,-21.0178109174776
-89,-8.61574189874027,-21.0573938568593
-88,-8.43427377178001,-21.0604739460239
-87,-8.26247235106183,-21.0116434041517
-86,-8.10505473606959,-20.9151747881728
-85,-7.9624698157381,-20.7915690178077
-84,-7.83078244955983,-20.6681791744517
-83,-7.70281744678645,-20.569233925349
-82,-7.57023352790514,-20.509033813763
-81,-7.42593945295468,-20.4890811215602
-80,-7.26608569076385,-20.4984466238588
-79,-7.09094614929701,-20.5168456984936
-78,-6.90442662131351,-20.5202702777091
-77,-6.71250714145301,-20.4884236232789
-76,-6.52130324015474,-20.4116635915329
-75,-6.335434812436,-20.2942813190346
-74,-6.15712108559033,-20.152431478365
-73,-5.98609502036726,-20.0081013595209
-72,-5.82019122527985,-19.8823386110493
-71,-5.65633032353828,-19.7902868154262
-70,-5.49157448919613,-19.7388121500974
-69,-5.32395212115102,-19.726340798748
-68,-5.15284708332952,-19.7443103311202
-67,-4.97890285463829,-19.7798247256239
-66,-4.80355197311015,-19.8191362125535
-65,-4.62838352223997,-19.8512768893728
-64,-4.45457396542487,-19.8707855057252
-63,-4.28254366456304,-19.8785168039411
-62,-4.11190409279067,-19.8802192018112
-61,-3.94166776954334,-19.8835356975465
-60,-3.77062637329897,-19.8946555391237
-59,-3.59777054065844,-19.9157616808874
-58,-3.42262879508895,-19.943970128312
-57,-3.24543884030897,-19.9720091630753
-56,-3.06712061180661,-19.9905108122996
-55,-2.88907868307499,-19.9913500407424
-54,-2.71290328226204,-19.9709744356132
-53,-2.54005387882989,-19.9324493241287
-52,-2.37159850283236,-19.8853752792325
-51,-2.20805562977648,-19.8437998535616
-50,-2.0493552747133,-19.8230856095422
-49,-1.89491010453952,-19.8368677827465
-48,-1.74376938350077,-19.8948199324258
-47,-1.59481870281153,-20.001417005331
-46,-1.44698586881022,-20.1555893445989
-45,-1.29941715749857,-20.3511368811675
-44,-1.15159740099238,-20.5778748431668
-43,-1.00340038665257,-20.8235319123982
-42,-0.855070227882513,-21.0762882014377
-41,-0.707146667566799,-21.3275160113718
-40,-0.560355200929585,-21.5739572841546
-39,-0.415485356812338,-21.8185507954191
-38,-0.273277986722269,-22.0695672187338
-37,-0.134336670092276,-22.3383864436936
-36,0.000928610071784133,-22.6367026171245
-35,0.132323851351356,-22.9739311675392
-34,0.259862827275633,-23.3552751280761
-33,0.383734876491472,-23.7805988753884
-32,0.504256829776187,-24.2441396556524
-31,0.621817434350492,-24.735139438231
-30,0.7368218638024,-25.239542720389
-29,0.849642465985937,-25.7427760860349
-28,0.960580076907948,-26.2331873692632
-27,1.06983826312843,-26.7051409366692
-26,1.17751097593841,-27.1605259396274
-25,1.28358250568084,-27.6079464842596
-24,1.38793746042882,-28.0599046331029
-23,1.490377832632,-28.5290938592548
-22,1.59064405112184,-29.0249744288579
-21,1.6884371632073,-29.5512940433263
-20,1.78343982557538,-30.1046732244089
-19,1.87533446201481,-30.6741177265195
-18,1.96381764312227,-31.2413554876937
-17,2.04861036282455,-31.7820896629088
-16,2.12946437234553,-32.2684699809879
-15,2.2061650637861,-32.6731345377682
-14,2.27853157983549,-32.9747848102188
-13,2.34641488740556,-33.1642399254289
-12,2.40969452285879,-33.2487473822262
-11,2.46827462715957,-33.2522939528717
-10,2.52207976895845,-33.2114968066678
-9,2.57105092450968,-33.1690580417015
-8,2.61514186110387,-33.1676255924517
-7,2.65431606508779,-33.2458539571338
-6,2.68854427136415,-33.4368810776037
-5,2.71780258964954,-33.7685155860937
-4,2.74207118232381,-34.2642841325426
-3,2.76133342649552,-34.9447156080439
-2,2.77557548524778,-35.8284937249384
-1,2.78478621604683,-36.9332445636828
0,2.78895735432422,-38.2756886352004
1,2.78808392403813,-39.8705745073705
2,2.7821648418599,-41.7268463859244
3,2.7712036953295,-43.83666089145
4,2.75520968617818,-46.1448820389461
5,2.73419873674356,-48.4707554295859
6,2.70819475905981,-50.3748913643743
7,2.67723108213756,-51.236316431147
8,2.64135202275805,-50.9163018581455
9,2.60061456866369,-49.9643104431157
10,2.5550901205254,-48.9326276455866
11,2.50486621110626,-48.1124773675579
12,2.45004808776251,-47.6495032956472
13,2.39076000965179,-47.6453093418459
14,2.32714607642443,-48.2043317881516
15,2.25937037439725,-49.4345580840432
16,2.1876162039399,-51.242864060712
17,2.11208414372639,-52.2014668039617
18,2.03298872009122,-49.9299865896515
19,1.95055348976687,-46.3311665656555
20,1.86500441811165,-43.171692312994
21,1.77656154737105,-40.6209395170175
22,1.68542910244083,-38.5552459791399
23,1.59178437242439,-36.8520980120473
24,1.49576592643597,-35.4156545043795
25,1.39746195593134,-34.1708141378179
26,1.2968997602422,-33.0581940663226
27,1.19403757714343,-32.0326124964295
28,1.08876007170481,-31.0633829080573
29,0.980878798383284,-30.1341806500203
30,0.870138809721832,-29.2409874403158
31,0.756232273011598,-28.388103537077
32,0.638819456748823,-27.5834271793468
33,0.517556757696995,-26.8343896947117
34,0.39213056929668,-26.145323855179
35,0.262294777211014,-25.5163447632385
36,0.127908573243456,-24.9434617959252
37,-0.0110297840094526,-24.4195888594927
38,-0.154358488792765,-23.9361656884865
39,-0.301742608229479,-23.4850882245699
40,-0.45268462534706,-23.060553940574
41,-0.606558785867167,-22.6603608793967
42,-0.76266997639246,-22.2862860871431
43,-0.920333493555284,-21.9434375718434
44,-1.0789667390923,-21.6387979822167
45,-1.23817863548994,-21.3793776045645
46,-1.39783893504142,-21.1703908746258
47,-1.55810923736158,-21.0137364770881
48,-1.7194215831915,-20.9069322472271
49,-1.88239901596935,-20.842624259368
50,-2.04772423253004,-20.8088536135419
51,-2.21597507267294,-20.7903288487131
52,-2.38745642106839,-20.7708505254078
53,-2.56206462636502,-20.7366252603399
54,-2.73922075664335,-20.6795729039628
55,-2.91790130879372,-20.5993170248106
56,-3.09677839249337,-20.5028742945822
57,-3.27445652881053,-20.4020873321449
58,-3.44976388815172,-20.3098454282172
59,-3.62203020226387,-20.2364208703475
60,-3.7912727490944,-20.1868554315557
61,-3.95822479213701,-20.1597964171143
62,-4.12417864623552,-20.1478840951669
63,-4.29066825616697,-20.1396903495771
64,-4.45906672025106,-20.1230132619362
65,-4.63020625926923,-20.088843963082
66,-4.80413244216984,-20.0347330206717
67,-4.98007930163777,-19.9661686383777
68,-5.15670009711035,-19.8953280805439
69,-5.33251645167137,-19.8377710599593
70,-5.50647071399375,-19.8084066357125
71,-5.67840842803732,-19.8179579430435
72,-5.8493107210627,-19.8705598020779
73,-6.02115776075672,-19.9626654897059
74,-6.1964200651135,-20.0833631945977
75,-6.37730076352514,-20.2163303516819
76,-6.56494113074252,-20.3435701275729
77,-6.7588281093517,-20.4504196559323
78,-6.95660576228283,-20.5302431393846
79,-7.15440095077109,-20.5866413719276
80,-7.34763285667228,-20.6318658862032
81,-7.53210371360731,-20.6820474862434
82,-7.70502002146453,-20.7512656249118
83,-7.86556061635895,-20.8464810215389
84,-8.01475558749694,-20.9645621926683
85,-8.15473078147706,-21.0921024372665
86,-8.2876640139197,-21.2086186569816
87,-8.41493854223929,-21.2932334468416
88,-8.53690216062608,-21.3332359486837
89,-8.65338217883164,-21.3307303194746
90,-8.76476128316505,-21.3034796144754
91,-8.87311546568536,-21.2792816426142
92,-8.98280074852597,-21.2869521186302
93,-9.1000440905496,-21.3477086236279
94,-9.23148577274206,-21.4688131327621
95,-9.38203633936912,-21.6396394479503
96,-9.55267546047527,-21.8306178368389
97,-9.73891633549006,-21.9973102289329
98,-9.93066335317391,-22.0926262919883
99,-10.1140656284345,-22.0859620210686
100,-10.2754700055162,-21.9793055474614
101,-10.4065228685306,-21.8079911017764
102,-10.5083086134599,-21.6254445579147
103,-10.5922727955623,-21.4836302682483
104,-10.6771638540478,-21.4194249816152
105,-10.7832683515771,-21.448270724997
106,-10.9261094915707,-21.5618172460028
107,-11.1112294405897,-21.7275440317797
108,-11.3308557109201,-21.8923084255465
109,-11.5632399022984,-21.9948485453376
110,-11.77616289053,-21.9890649290168
111,-11.9360556378563,-21.867689560812
112,-12.0213913508746,-21.6679222267904
113,-12.0341308786488,-21.4540654995957
114,-12.0017094779801,-21.2924391070931
115,-11.9683004852143,-21.2341608099126
116,-11.9816738557538,-21.3080125994363
117,-12.0825515508679,-21.5176528191365
118,-12.2984367478733,-21.837978302651
119,-12.6397576675372,-22.2100910947888
120,-13.095127101644,-22.5420231107024
121,-13.6238838738099,-22.7303098574021
122,-14.1484935874512,-22.7084941599218
123,-14.5587031358785,-22.4905681993112
124,-14.746137926945,-22.1630169500537
125,-14.6649085018665,-21.8349929419303
126,-14.364598868457,-21.5961791481941
127,-13.9562608340129,-21.5025010654042
128,-13.5519642926636,-21.5776034881749
129,-13.2306603963409,-21.8156253679741
130,-13.0335749582011,-22.1791758199728
131,-12.9697929253207,-22.5942379863448
132,-13.0195236605315,-22.9531887468328
133,-13.1322426568625,-23.1450199153482
134,-13.2241478548225,-23.114058406411
135,-13.1872862800019,-22.8998127311971
136,-12.9243908715953,-22.6118410013388
137,-12.3992957053891,-22.3702835460071
138,-11.6577960493686,-22.2677862722292
139,-10.7953366451214,-22.3621099658148
140,-9.90790435875042,-22.6803623565852
141,-9.06552689847194,-23.2188452080807
142,-8.31006303740935,-23.9297589504936
143,-7.66281760553255,-24.6927246245897
144,-7.13255806011556,-25.2953744560161
145,-6.72119043039948,-25.5025816936447
146,-6.42722217350866,-25.2415881802569
147,-6.24773567719386,-24.6800534169037
148,-6.17947800189581,-24.0698957720584
149,-6.21945707331676,-23.5980340230424
150,-6.36527275178049,-23.3660760669305
151,-6.61531074785695,-23.4215273456435
152,-6.96886826460358,-23.7822695449316
153,-7.42624391334641,-24.4416664563585
154,-7.98879673412812,-25.3498122612855
155,-8.65894695362282,-26.3623482024881
156,-9.44003616075621,-27.1791460495181
157,-10.3358524330733,-27.4290461572878
158,-11.3493847351984,-27.0183873256355
159,-12.4798549267382,-26.2529950448116
160,-13.716044461221,-25.5017167092369
161,-15.0223093925639,-24.9854437746756
162,-16.3133306812659,-24.8072514532434
163,-17.4244471220099,-25.0218702651167
164,-18.1246645566719,-25.6788971046196
165,-18.2434525852169,-26.8486084455264
166,-17.8239861347059,-28.6421442830323
167,-17.0781334042182,-31.2088867287139
168,-16.2159831754304,-34.4683749370491
169,-15.3660344846976,-36.3894469480418
170,-14.5876205383801,-34.430447342773
171,-13.9015021262437,-31.747379476758
172,-13.3106048472478,-29.8710574550428
173,-12.8107002554182,-28.812273057739
174,-12.3953481928568,-28.4672393884804
175,-12.0580528223084,-28.805553770778
176,-11.7931472884833,-29.8969487743857
177,-11.5961193392704,-31.979172863963
178,-11.4637041949739,-35.7388868289372
179,-11.3938938024229,-44.1876046204259
180,-11.3859315554365,-46.0715028053783
