"Theta [deg]","dB(rEPhi) [] - Freq='28GHz' Phi='0deg'","dB(rEPhi) [] - Freq='28GHz' Phi='90deg'","dB(rETheta) [] - Freq='28GHz' Phi='0deg'","dB(rETheta) [] - Freq='28GHz' Phi='90deg'"
-180,3.79942204396961,-16.643201754132,-16.643201754132,3.7994220439696
-179,3.74186887602075,-17.0103706587399,-22.684547814041,3.64004973460921
-178,3.67528662368951,-17.4124794070458,-23.044243431166,3.42410539598209
-177,3.60788160964692,-17.8431240339955,-17.221695959214,3.14725336670255
-176,3.55298602528883,-18.2939794571999,-13.7760153927593,2.80308048491252
-175,3.52599936350738,-18.7540977777578,-11.8035150140328,2.38261555563051
-174,3.53953493646444,-19.2091669851129,-10.7863166549899,1.87359643927794
-173,3.59853910964166,-19.6408953270384,-10.5208391106885,1.25934387096314
-172,3.69777857677263,-20.0268438903157,-10.9560157760094,0.517000679977167
-171,3.82318667051369,-20.3411931719382,-12.1557231496722,-0.385279374954997
-170,3.95650568699825,-20.5569467607791,-14.3323214132726,-1.49288810334433
-169,4.08114737741123,-20.6497068209168,-17.9339657237129,-2.87202393568188
-168,4.1872354668304,-20.6022992461924,-22.5906525368101,-4.61946675907699
-167,4.27472854744675,-20.4085952689519,-20.4009095027207,-6.86094036924151
-166,4.35417987997723,-20.0747676697666,-15.742568044519,-9.61182199133273
-165,4.44472188997362,-19.6173926891296,-12.7095324104962,-11.7849670195952
-164,4.56888611909462,-19.059450527931,-10.8386369095281,-10.5593609388849
-163,4.74482703903479,-18.4260487650897,-9.78756626380623,-7.33960480692896
-162,4.97850230186061,-17.7412256194535,-9.39783013100894,-4.37844422982291
-161,5.25963219910877,-17.0262241066973,-9.61059345909753,-1.97002098077451
-160,5.56366264725493,-16.2989471488567,-10.4271343445178,-0.00556491810174132
-159,5.85828355806146,-15.5741046688577,-11.8703280446219,1.6242375335917
-158,6.11082202254627,-14.8636551667042,-13.8275275122886,2.99504070499636
-157,6.29370765108534,-14.1773078094628,-15.4078794673871,4.15719148007067
-156,6.38745396286303,-13.5229795902628,-14.7654094704159,5.14450125546604
-155,6.38209711552574,-12.9071756896268,-12.4481630462253,5.98000374362512
-154,6.27831858148021,-12.3352941228097,-10.1824678744189,6.6795127567897
-153,6.08902548601048,-11.8118662119871,-8.46379945139404,7.25383161402266
-152,5.84126655973843,-11.3407447699949,-7.29476449280012,7.71015239299385
-151,5.57692604404963,-10.9252485754299,-6.60959355356947,8.05296053476192
-150,5.34886903496737,-10.5682673812594,-6.3514700264222,8.28463005220635
-149,5.20901847247778,-10.2723269431736,-6.4743162212066,8.40582165321412
-148,5.1897135936618,-10.0396080407375,-6.92582249404536,8.41575654492592
-147,5.28856514488089,-9.8719063915642,-7.61388252074965,8.31241995648387
-146,5.46870746323915,-9.77051066011206,-8.35337615582257,8.09274573367407
-145,5.67419837419612,-9.73596230336222,-8.83863220042428,7.75284829102124
-144,5.84851225351121,-9.76764316471425,-8.78439547258639,7.28840983036213
-143,5.94623159551619,-9.86311622207263,-8.20234868450544,6.69541979405232
-142,5.93696136039233,-10.0171302972729,-7.38395731102641,5.97163931715946
-141,5.80524002089361,-10.2202162574999,-6.61972242078754,5.11948596261464
-140,5.55002691754818,-10.456909276182,-6.07385573860839,4.15153836667825
-139,5.18561046560922,-10.7039342377462,-5.81435913615547,3.10029186527959
-138,4.74403727679957,-10.9292951120522,-5.85835078388879,2.03267138043986
-137,4.2769774383586,-11.0939917046955,-6.19105312450204,1.06274851731895
-136,3.85190938776341,-11.1582486634755,-6.75886429920843,0.339419520896914
-135,3.5362778421869,-11.0922127487484,-7.4399257302672,-0.018214669950354
-134,3.3706478875922,-10.8868849248439,-8.01351348241916,-0.00353701956561613
-133,3.34739534872913,-10.5584455830906,-8.21129994680457,0.274431929032229
-132,3.41402013924496,-10.1427679066055,-7.91441321790068,0.672422197768517
-131,3.49784382170079,-9.68408361294865,-7.27572040545616,1.08190299030484
-130,3.53113134360451,-9.22460346414938,-6.56369858513385,1.4451116986698
-129,3.46374254137593,-8.79878709561521,-5.98118668545126,1.74346616057784
-128,3.26522603772222,-8.43192051142991,-5.6332321385136,1.98238835164292
-127,2.9230808672466,-8.14104542091828,-5.56027516327789,2.17948173343147
-126,2.44182804153109,-7.93659238479638,-5.76405672820023,2.35564214802973
-125,1.8446414395174,-7.82385828375948,-6.21137356789528,2.52810020555507
-124,1.17681295859084,-7.80404369043955,-6.81647218818857,2.70566400432554
-123,0.506922775257945,-7.874857982173,-7.411866713905,2.88712792579659
-122,-0.0826600440258262,-8.03082737837734,-7.75601562867404,3.06315427799935
-121,-0.522772661635736,-8.26350536254764,-7.65944364682472,3.22058793818518
-120,-0.791781575054822,-8.56182939787453,-7.15401687867243,3.34741478062365
-119,-0.928413236183476,-8.91287796038258,-6.4575698201349,3.43689854382917
-118,-1.00958954155987,-9.30319462387313,-5.79135158989288,3.49021118460446
-117,-1.11503776752376,-9.72058709628655,-5.28941099370091,3.517341619527
-116,-1.30418560094077,-10.1558833573583,-5.00804506561669,3.53604490377151
-115,-1.60898430037706,-10.6037113785218,-4.95314206964076,3.56848117596651
-114,-2.03389886154595,-11.0612661316322,-5.09305194031278,3.63563318309883
-113,-2.55594792016787,-11.5244327481845,-5.35684251564622,3.75087168702038
-112,-3.12349412381334,-11.981507394201,-5.62934930688117,3.9153605995892
-111,-3.65866313394248,-12.4061350557282,-5.76692183355011,4.11773600298262
-110,-4.07303402154543,-12.7533756839316,-5.65703458454697,4.33820232888107
-109,-4.30087438399142,-12.9655203772288,-5.29060160592134,4.55475896488871
-108,-4.33219260799959,-12.9927100270716,-4.7650861316773,4.748778833672
-107,-4.21524208697628,-12.8209233493396,-4.21397233359046,4.90842296479254
-106,-4.02612067649239,-12.4853702459666,-3.74384788478048,5.02979271709265
-105,-3.8348976805712,-12.0561536481309,-3.41634717502399,5.11635227252418
-104,-3.6891698172625,-11.6099379637031,-3.25486667383587,5.17714405318213
-103,-3.61290629135706,-11.2088839391961,-3.25408548656682,5.2241796083131
-102,-3.6109085774347,-10.8932003543135,-3.38502644494921,5.26944143632891
-101,-3.67267424238561,-10.6818831026743,-3.59703000606894,5.32216541982098
-100,-3.77364582401184,-10.5754324488075,-3.82215479198242,5.38720810303997
-99,-3.8744561311946,-10.5576853010372,-3.98898195039856,5.46503821699078
-98,-3.92112217838023,-10.5968126698404,-4.04717518900261,5.55324233199382
-97,-3.85148346749037,-10.6475699424769,-3.98995084738197,5.64878752898705
-96,-3.61223428152352,-10.6580208485773,-3.8554047200951,5.75004151966654
-95,-3.18182026526179,-10.5825446831027,-3.7050892906171,5.85777821579368
-94,-2.5829237803318,-10.3973962663078,-3.59797023339548,5.97487809387158
-93,-1.87271829665308,-10.1093589855024,-3.57457752568387,6.10494106684971
-92,-1.11922270416495,-9.75080001100508,-3.65204608752965,6.25043405905432
-91,-0.381138448962862,-9.36512320674508,-3.82459033330204,6.4111829166449
-90,0.301115412733029,-8.99258801401263,-4.06595690446206,6.58387434380384
-89,0.906037414250953,-8.66251452094557,-4.33431427212958,6.76277596878915
-88,1.4284487610949,-8.39162651958316,-4.58223254895807,6.94134611676191
-87,1.87655364121068,-8.18577124030761,-4.77244885073783,7.11408684164796
-86,2.26921969290484,-8.04279634649918,-4.8936263578954,7.27800857742352
-85,2.63275725811756,-7.95553466140942,-4.9658392387627,7.43330763192124
-84,2.99619162784972,-7.91454656046987,-5.03142673045157,7.58313256731531
-83,3.38481380558198,-7.91045431067127,-5.13800241739015,7.73254631082854
-82,3.81350773183515,-7.93563752029855,-5.32328199802799,7.88698088689278
-81,4.28274649341305,-7.98500603533432,-5.60523725737217,8.05063160734114
-80,4.77945924382786,-8.05568055764075,-5.97538752331446,8.22528737309258
-79,5.28224732789469,-8.14568745584673,-6.39282926292576,8.40996642717837
-78,5.76814787649252,-8.25208278926641,-6.78169535125856,8.60143242067062
-77,6.21819736930327,-8.36913081001545,-7.04289415155952,8.79534000977602
-76,6.6206581793318,-8.48723500924375,-7.09113548004028,8.98757014127631
-75,6.97215383552643,-8.59325928282825,-6.90251362029919,9.17532954946679
-74,7.27737475106201,-8.67260956376759,-6.52860260863958,9.35774478755435
-73,7.54777976646027,-8.71283265463642,-6.0612700336455,9.53587073631142
-72,7.79937504888619,-8.70759620921378,-5.5862981283842,9.71218844492165
-71,8.04957411573958,-8.65929962382397,-5.15988170918691,9.88977254821815
-70,8.31347260986822,-8.57895994727922,-4.80707897612894,10.0713689502414
-69,8.60044072733784,-8.4833952555455,-4.52890340785452,10.2586332365583
-68,8.91224418739643,-8.3910419726028,-4.31032932026971,10.4517261125617
-67,9.24347808827961,-8.31801745788893,-4.12758713624288,10.6493482795307
-66,9.58407208093012,-8.27537680004546,-3.95528513590591,10.849160709659
-65,9.92274663202973,-8.26769807884508,-3.77339788348124,11.048431539257
-64,10.2501575355391,-8.29270860221821,-3.57276423400931,11.2447143438286
-63,10.560940484586,-8.3416657762662,-3.35715111781472,11.4363925830681
-62,10.8544457813756,-8.40040968806122,-3.14113120064069,11.6229911392334
-61,11.1343014748645,-8.45118164984942,-2.94509168001796,11.8052248574299
-60,11.4070687427477,-8.47528249983762,-2.78973683425313,11.9848074827727
-59,11.6803150017204,-8.45634355006361,-2.69181790305252,12.1640799616854
-58,11.9605286939722,-8.38350801333532,-2.66151489316891,12.3455392113986
-57,12.2513941258485,-8.25352250347829,-2.70101962631176,12.5313597071038
-56,12.5529040248981,-8.07098893857321,-2.80372309623662,12.7229983151638
-55,12.8615343654825,-7.84679360313197,-2.95376772182447,12.9209539066464
-54,13.171331023217,-7.59548670796523,-3.12632626130354,13.1247179196302
-53,13.4754675461135,-7.33261701698149,-3.28957170034053,13.3329082938085
-52,13.7677716181615,-7.0727125724855,-3.4094323835393,13.5435403053887
-51,14.0438583586853,-6.82810653206663,-3.45715905502635,13.7543654440769
-50,14.3017178575099,-6.60846236137601,-3.41738230661657,13.9632078153533
-49,14.5417688808154,-6.42073671914902,-3.29254755474648,14.1682424725872
-48,14.7664772616498,-6.26935249023478,-3.10099874566117,14.3681828709742
-47,14.9796706457599,-6.15643910579937,-2.87003958356205,14.562367027165
-46,15.1856958649191,-6.08207500586444,-2.62805747657711,14.7507491678698
-45,15.3885765112181,-6.04452012112648,-2.39901917457915,14.9338145305367
-44,15.5913277342568,-6.04045627272984,-2.20017446036073,15.1124406041274
-43,15.795554783329,-6.06526639233844,-2.04212261772471,15.2877300494813
-42,16.0013944271751,-6.11338324082911,-1.93005703010435,15.4608399086231
-41,16.2077704010838,-6.17872574015749,-1.86534061926016,15.6328289136875
-40,16.4128580564329,-6.25521650456183,-1.84696989595084,15.8045398336852
-39,16.6146174976064,-6.33734116760602,-1.87274406880336,15.9765271413813
-38,16.8112653863379,-6.42067796091369,-1.94007971434403,16.1490326493958
-37,17.001598665377,-6.50230871822383,-2.04646573514924,16.3220044242453
-36,17.1851360518825,-6.58103241841919,-2.18958546407619,16.4951485928217
-35,17.3620878947892,-6.65734151944741,-2.36716283723174,16.6680005641052
-34,17.5331946245634,-6.73317700162663,-2.57661912049635,16.8400019435595
-33,17.6994887610386,-6.81152833745841,-2.81465089940087,17.0105715435052
-32,17.862038171567,-6.89597075305903,-3.0768554629259,17.1791624566235
-31,18.0217216105607,-6.99022843702724,-3.35753488794688,17.3453011330626
-30,18.1790735882269,-7.09782673286807,-3.6498007285566,17.5086079554114
-29,18.3342168522197,-7.22186305358554,-3.94606528578758,17.668801451248
-28,18.4868809063743,-7.36489739581782,-4.23892687685974,17.8256898655306
-27,18.6364883087025,-7.52894474867625,-4.52233186988854,17.9791544231814
-26,18.7822804062425,-7.71554350472611,-4.79275780652307,18.1291284650873
-25,18.9234519711152,-7.92587330773919,-5.0500821725506,18.2755759968411
-24,19.0592688137855,-8.16089925397156,-5.29785296996182,18.4184722886878
-23,19.1891512094779,-8.42152448256732,-5.54286519551084,18.557788200637
-22,19.312715905221,-8.70873854008426,-5.79418155692202,18.6934790171594
-21,19.4297782606651,-9.02375391830582,-6.06189069351597,18.8254778474334
-20,19.5403224359988,-9.36812772536879,-6.35590669270487,18.9536931204134
-19,19.6444511084911,-9.74386958966587,-6.68501135444987,19.07800938333
-18,19.7423271867371,-10.1535406513291,-7.05620742871779,19.1982904755498
-17,19.8341188867348,-10.6003518925616,-7.47435339845974,19.3143841587439
-16,19.9199569307223,-11.0882731582243,-7.94201137638511,19.4261273940753
-15,19.9999091618659,-11.622167173519,-8.45945016935037,19.5333516236737
-14,20.0739741738863,-12.2079659069238,-9.02478557410626,19.6358875996731
-13,20.1420922243099,-12.8529099025865,-9.63429057143706,19.733569481643
-12,20.2041691961055,-13.5658742590951,-10.2829514748152,19.8262380746568
-11,20.2601079585811,-14.357805167671,-10.9653611050234,19.9137431969278
-10,20.3098411883146,-15.2422791001955,-11.6770030315135,19.995945246496
-9,20.3533603761565,-16.2361431736222,-12.4158804852583,20.0727160842701
-8,20.3907370699872,-17.3600061129071,-13.1843079856463,20.1439393718861
-7,20.4221340487804,-18.637723881694,-13.9905973202338,20.2095105043326
-6,20.4478057910347,-20.0919843562626,-14.850442570287,20.2693362658094
-5,20.4680890675442,-21.7265694095676,-15.7881045075985,20.3233343185189
-4,20.4833856208675,-23.4675246990868,-16.8379929161501,20.3714326124358
-3,20.4941396332432,-25.0131190476262,-18.0479443582502,20.413568782565
-2,20.5008130260541,-25.70552017953,-19.486685305804,20.4496895806331
-1,20.5038616048004,-25.0734390180975,-21.2608287022462,20.4797503714088
0,20.5037147100505,-23.5551448879157,-23.5551448879158,20.5037147100505
1,20.5007604150471,-21.8190219748581,-26.7364252767472,20.5215540056952
2,20.4953374930359,-20.1814547572249,-31.5933483278057,20.5332472673087
3,20.4877344414348,-18.7222414303967,-36.5728957213072,20.5387809198935
4,20.4781948858848,-17.4390707360005,-30.9518994947845,20.5381486718154
5,20.4669277935442,-16.3093055275713,-25.9267808072407,20.5313514067294
6,20.454120203127,-15.3087531875446,-22.5237610960849,20.5183970660794
7,20.4399497258914,-14.416392292976,-19.9893276240133,20.4993004804707
8,20.4245939694658,-13.6149706568143,-17.981524614152,20.4740831008452
9,20.408234342008,-12.8905282745396,-16.3346626748491,20.4427725743007
10,20.3910524262667,-12.2317496949692,-14.9602541770818,20.4054021060701
11,20.3732182375348,-11.6293915488777,-13.8073918716274,20.3620095506688
12,20.3548710960446,-11.0758318823063,-12.8448041908989,20.3126361840149
13,20.3360953794514,-10.5647317118355,-12.0517985280954,20.2573251272227
14,20.3168948341411,-10.0907870381924,-11.4132533259776,20.1961194245281
15,20.297170135497,-9.64955007057033,-10.9165705957354,20.1290598246546
16,20.2767047293417,-9.23730173813036,-10.5495761041387,20.0561823779201
17,20.2551634701028,-8.85096079539395,-10.298838296714,19.9775160395315
18,20.2321071465576,-8.48801734873724,-10.1481515407445,19.8930805589161
19,20.2070237774716,-8.14648054519373,-10.0771648284672,19.8028850279096
20,20.1793748527741,-7.82483175718584,-10.0604282779588,19.7069275451153
21,20.1486518829043,-7.52197613988507,-10.0674902880494,19.6051965132539
22,20.1144361216029,-7.23718711617612,-10.0649381740354,19.4976741004515
23,20.0764525346939,-6.9700402310424,-10.0209912968449,19.3843423424768
24,20.0346083286886,-6.72033488518653,-9.91198009616609,19.265192218474
25,19.9890069050146,-6.48800461513806,-9.72819196824284,19.1402357791689
26,19.9399301990196,-6.27301872786381,-9.47588662804618,19.0095210337941
27,19.8877861389088,-6.07528014498686,-9.17417642054182,18.8731488141685
28,19.8330233428484,-5.89452623259024,-8.84857322756219,18.7312902561157
29,19.7760216786475,-5.73024117042064,-8.52442604323261,18.5842029218737
30,19.7169738904143,-5.5815899722997,-8.22241985951696,18.4322430183637
31,19.6557785698603,-5.44738536426398,-7.95646303829939,18.2758707686395
32,19.5919665568833,-5.32609885160611,-7.7332163855129,18.1156459247835
33,19.5246800952919,-5.21592567332919,-7.5524008831429,17.9522108438518
34,19.4527165712128,-5.11490903815451,-7.40737256786113,17.786259637481
35,19.3746376712176,-5.02112141458626,-7.28587321579088,17.6184937230952
36,19.2889326433239,-4.93288993883639,-7.17118853144013,17.4495665672395
37,19.1942135757031,-4.84904089589152,-7.04408837519742,17.2800232143228
38,19.089413095107,-4.7691279691752,-6.885774789834,17.1102427915563
39,18.9739514250397,-4.69360453316936,-6.68154777454569,16.9403938577663
40,18.847840375614,-4.62390466730191,-6.42419907861334,16.770412509496
41,18.7116966228309,-4.56241088759227,-6.11580202132613,16.6000111092972
42,18.5666462574713,-4.51230526078578,-5.76707306716293,16.4287213617134
43,18.4141181613355,-4.477318590635,-5.39462430366093,16.2559697885155
44,18.2555455879051,-4.46140405902717,-5.01733481487122,16.0811774504319
45,18.0920209127031,-4.46836432231413,-4.65312590598606,15.9038702234454
46,17.9239713737457,-4.50145585782981,-4.31683089973906,15.7237821685447
47,17.7509343473755,-4.56298578129711,-4.01920146658763,15.5409333706467
48,17.5715012423701,-4.65391037728589,-3.76675001584485,15.3556655958076
49,17.3834681304158,-4.77344720643155,-3.5620870510707,15.1686244657366
50,17.1841866323617,-4.91872892031737,-3.40451685696278,14.9806854341485
51,16.9710639479921,-5.08455942130437,-3.29077384587034,14.7928318661404
52,16.7421279977585,-5.26337816427097,-3.21585339684793,14.6060051423765
53,16.4965563334634,-5.44557955113964,-3.1739003134001,14.4209559967398
54,16.235062221625,-5.62033515885084,-3.15907614268146,14.2381297853687
55,15.960033784292,-5.77697673492942,-3.16626346954027,14.0576134325758
56,15.6753354612851,-5.9067889181895,-3.19142518082984,13.8791581668407
57,15.3857193836506,-6.00478691351313,-3.23146242970602,13.7022728520802
58,15.0958749900091,-6.07087970137944,-3.28352405802042,13.5263633002966
59,14.8092691670937,-6.10992303328794,-3.34389298393307,13.3508795177995
60,14.5270583276937,-6.13055972918051,-3.40676965331221,13.1754297428602
61,14.2474134681312,-6.14320368350363,-3.46344618217153,12.9998286429332
62,13.9655246253829,-6.15777076667657,-3.50246108886021,12.82406525425
63,13.6743520053436,-6.1817072911382,-3.51122745457884,12.6481997837055
64,13.3659643955809,-6.21864958791387,-3.47917214266299,12.4722212430243
65,13.0331649356884,-6.2678517897803,-3.40159563374899,12.295913447908
66,12.6710900305275,-6.3244242318901,-3.28268986342312,12.118779634059
67,12.2785256342709,-6.38038600391077,-3.13618819940668,11.9400634708276
68,11.8587276857149,-6.42644619269332,-2.98323435853617,11.758879056936
69,11.4195129327015,-6.45421974949315,-2.84845343314045,11.5744314444329
70,10.9723451600725,-6.45831390687814,-2.75578400322294,11.3862809939179
71,10.5302174577773,-6.43759055256478,-2.72515914773026,11.1945864677727
72,10.1044839774686,-6.39511705304196,-2.77026885553526,11.0002569601999
73,9.70141609480079,-6.3368315141219,-2.89706812949457,10.8049527557362
74,9.31978156701807,-6.26947107895994,-3.10262160022335,10.6109004939114
75,8.95061580990773,-6.19853813225884,-3.37421912863532,10.4205284883191
76,8.57943944204747,-6.12695593540324,-3.6893456596953,10.2359798980461
77,8.19009895544204,-6.05475907884857,-4.01782751570193,10.0586127279521
78,7.76894960006666,-5.97984476550725,-4.32763976701121,9.88862575956617
79,7.30837597260841,-5.89953288153239,-4.59432111698876,9.72493753858974
80,6.80912355019462,-5.81244736532257,-4.81056707990377,9.56538475879267
81,6.28106957869976,-5.72009341403401,-4.99023450463439,9.40721374475297
82,5.74183673977934,-5.62757282368218,-5.16342535510241,9.2477482267655
83,5.21252416173012,-5.54318940126997,-5.36494045472407,9.0850597785817
84,4.71058698562679,-5.4771110516822,-5.62111786479233,8.91845780975262
