"Theta [deg]","dB(rEPhi) [] - Freq='28GHz' Phi='0deg'","dB(rEPhi) [] - Freq='28GHz' Phi='90deg'","dB(rETheta) [] - Freq='28GHz' Phi='0deg'","dB(rETheta) [] - Freq='28GHz' Phi='90deg'"
-180,-24.8445372310278,9.19884925683399,9.19884925683397,-24.8445372310276
-179,-25.6843331414387,9.12835853600932,9.19888956540117,-32.1135557112973
-178,-26.7352211166079,8.94241500173372,9.14265982312319,-22.0384955486952
-177,-28.0581468806132,8.65372352373761,9.02840261034704,-17.5094011323257
-176,-29.7503659377592,8.28291717510988,8.8531475815329,-15.0731604218338
-175,-31.9759677583051,7.85716909877662,8.6125878174415,-13.7701838933277
-174,-35.0145489259217,7.40660023531563,8.3009340963647,-13.2804628648297
-173,-39.0963101780728,6.95830169758651,7.91076472936466,-13.5036099192391
-172,-41.2358509910934,6.52998507463669,7.43292913716687,-14.4701639150017
-171,-37.3918988711226,6.12752900975642,6.85666296523048,-16.3624126669674
-170,-33.4846575985127,5.75043058267471,6.17031994380983,-19.6740218083773
-169,-30.6071334173081,5.40559996944207,5.36374052561814,-25.6641516835832
-168,-28.4317222844198,5.12498288303852,4.43477003729757,-27.7366694868466
-167,-26.7246955000811,4.97645522261575,3.40570872661872,-20.7277186979613
-166,-25.3506198761471,5.05021738418909,2.36010867134912,-16.6580735587963
-165,-24.2278723282975,5.40984925854597,1.50241723753909,-14.2181040752862
-164,-23.3044198225977,6.03900013603356,1.16919872814365,-12.7349374263314
-163,-22.5454106207154,6.84143504629343,1.6182558670661,-11.9220523867984
-162,-21.926511295409,7.69334140692784,2.74108951245599,-11.6308420170198
-161,-21.4301079962597,8.49080459900581,4.19147553879059,-11.7548968612788
-160,-21.043009948314,9.16461999346445,5.69141813871509,-12.1633279175596
-159,-20.7549815200296,9.6746723789522,7.10500711743979,-12.6257068342576
-158,-20.5577531626076,10.0001010021517,8.38393448580883,-12.7800386010958
-157,-20.4443234338422,10.1321491921731,9.51831074764739,-12.3221581970106
-156,-20.4084516353385,10.0709981276556,10.5122169500533,-11.3188891079542
-155,-20.4442926326609,9.8265493120092,11.3735707623905,-10.1127262323972
-154,-20.5461602998645,9.42340782368517,12.1102867803418,-8.99472792257059
-153,-20.7084312336614,8.91026628603873,12.728972624924,-8.1103224691558
-152,-20.9256167717174,8.37092717075309,13.234601878687,-7.51296453771951
-151,-21.1926347857638,7.92487953396678,13.6305402078477,-7.21580375576755
-150,-21.5052961757046,7.69512987009344,13.9186801703433,-7.21586937074126
-149,-21.8609791166879,7.74138011856756,14.0995935559795,-7.49990100348506
-148,-22.2594002174225,8.01624446794456,14.1726737668182,-8.03714090658302
-147,-22.7033227225256,8.39823833137175,14.1362700214951,-8.75769572263925
-146,-23.1989925277694,8.76024143755569,13.9878338527456,-9.51659725272429
-145,-23.7560739814281,9.00864177916815,13.724119034721,-10.0750991370083
-144,-24.3868351058343,9.0869784522765,13.3415091071026,-10.1916246836085
-143,-25.1042025190651,8.96665177933034,12.8366053706907,-9.82499310264381
-142,-25.9178886471351,8.63955117730719,12.2073121082989,-9.17832911215844
-141,-26.8268585153814,8.11762487378487,11.4548279421503,-8.50936099580638
-140,-27.8049810866763,7.44094502470344,10.5871907917514,-7.99275172538555
-139,-28.7768001334226,6.69328609526999,9.62518163015335,-7.71653165183606
-138,-29.5910989146052,6.01346677141645,8.61082286110518,-7.7176403292219
-137,-30.0358592215789,5.56819748722344,7.6156971000875,-8.00555722238584
-136,-29.9548251261922,5.46029967134435,6.73900328246719,-8.56704273235152
-135,-29.3844125581206,5.64483154390599,6.07939447595872,-9.35119426352976
-134,-28.5148910593609,5.96440912350854,5.68218880873455,-10.231757199615
-133,-27.5371146727465,6.25335657862573,5.50537699045339,-10.9658496569642
-132,-26.5664961313266,6.39517647928693,5.44359357229587,-11.2503524709396
-131,-25.6527024755705,6.32333859018649,5.38250797461873,-10.9613493403626
-130,-24.8096883778274,6.00527375942202,5.23511029562524,-10.2900989844867
-129,-24.0380884761022,5.43202694091648,4.95142287468179,-9.53689477190279
-128,-23.3377442914794,4.62007294794078,4.51858720844967,-8.90769755016155
-127,-22.7132886453235,3.62864485055711,3.9656926775415,-8.49482454403856
-126,-22.1753337151625,2.59197134580109,3.37740402683347,-8.31994353929765
-125,-21.7392348841452,1.73598220153694,2.90310629296804,-8.36244092240749
-124,-21.4230066320985,1.29193882032295,2.72038234996968,-8.56634299009937
-123,-21.2454432596515,1.30114095842218,2.92725472086381,-8.83669921016925
-122,-21.2248935754289,1.56504027632305,3.458885740211,-9.04405121221053
-121,-21.378658089425,1.82301484026249,4.14464212747169,-9.0616579001181
-120,-21.7226946239107,1.889122591912,4.82306333613924,-8.8332103018519
-119,-22.2711412924549,1.65844398315198,5.3935537493835,-8.40935004103681
-118,-23.0349120380697,1.07139102346716,5.81089415094519,-7.90737231903477
-117,-24.0180561355425,0.0881068118956033,6.06704076144278,-7.44320397168391
-116,-25.2094599544506,-1.31549292126474,6.17891033142435,-7.09561948935699
-115,-26.5660838995847,-3.11308957149556,6.18300243901351,-6.90350203500313
-114,-27.9857159659611,-5.10032458404849,6.13246309357779,-6.87371125114778
-113,-29.2848603896666,-6.66864105460818,6.09083127304525,-6.98683815886469
-112,-30.2396723620596,-7.0939606709461,6.11788247041922,-7.1989641328781
-111,-30.7291344637264,-6.62841447450706,6.24974693896701,-7.44357534881473
-110,-30.832406446801,-6.1235186303947,6.48522088975457,-7.64152230152107
-109,-30.7262286118004,-6.08282585946817,6.78977165387653,-7.72497799601769
-108,-30.5378832217566,-6.69711922012235,7.11410944439024,-7.66713627438067
-107,-30.3097549639477,-7.99655009598507,7.41352943025688,-7.49404289780417
-106,-30.0404589439524,-9.58391408050942,7.65891470343336,-7.26632536386048
-105,-29.7356146428027,-9.80770638663944,7.83952103670567,-7.04747305162542
-104,-29.4337770853474,-7.64775645117076,7.96117373799311,-6.88091975895143
-103,-29.2011065521233,-4.88241172544113,8.04230723253571,-6.7814604161833
-102,-29.1115608455698,-2.55689425879151,8.10843550277473,-6.73572402789354
-101,-29.2321777776588,-0.778701634563071,8.18516451237265,-6.70776195580097
-100,-29.6196421809546,0.544714098374317,8.29091727310042,-6.65024989970161
-99,-30.3247450519029,1.52554116497834,8.43194417622313,-6.52201097343254
-98,-31.4007120515509,2.27521909922547,8.6020000486538,-6.30648781819431
-97,-32.9141197596449,2.90621613795905,8.78670860312296,-6.0200205166208
-96,-34.9583166478404,3.52521565295619,8.97009765846055,-5.70400610880705
-95,-37.6574576973801,4.21168293412427,9.14028126026267,-5.40773720703446
-94,-41.0293886786178,4.99448569197264,9.29258676290136,-5.17329615248804
-93,-43.8466799139676,5.84928555982686,9.42991546616879,-5.02759845832534
-92,-42.8898720389597,6.72164230795516,9.5608797164602,-4.97996608657454
-91,-39.9429145009376,7.55633555250652,9.69650560892613,-5.02198835826203
-90,-37.280716701071,8.31508964240786,9.84649043887242,-5.12808867392698
-89,-35.0681090222014,8.98119167066908,10.0161968052537,-5.25762900542022
-88,-33.1565260195921,9.55728371202473,10.2054083115771,-5.36117756656813
-87,-31.4442013930537,10.0610305576864,10.4091634815578,-5.3929338170147
-86,-29.8841990520212,10.5199752153365,10.6200645848138,-5.32644532330597
-85,-28.4600584300186,10.9651963826383,10.8309357827435,-5.16467573041349
-84,-27.1684254335299,11.4237504682195,11.036833092713,-4.93679923107094
-83,-26.0104746414808,11.9115867441224,11.2359222382553,-4.68421371351461
-82,-24.9884138718503,12.4298832370514,11.4292448984921,-4.44544435480951
-81,-24.10386245866,12.9666768841859,11.6197028966532,-4.24678882373029
-80,-23.3564460904643,13.5027078026616,11.8107166910792,-4.09925083400641
-79,-22.7420650908129,14.0183357442932,12.0050140892256,-3.99941839774211
-78,-22.250845164426,14.4988195322944,12.2038967227845,-3.93244864503019
-77,-21.8651020740928,14.9370029333044,12.4071311195997,-3.87661721421988
-76,-21.5580844548508,15.3337396180523,12.6133788181406,-3.80934911879615
-75,-21.2948880620622,15.6967072014256,12.8209091438101,-3.7138930497924
-74,-21.0372581358094,16.0380793803396,13.0282926892466,-3.58454836574016
-73,-20.752803483831,16.3714041972871,13.2348465036094,-3.42813487016208
-72,-20.4257717398386,16.708207534391,13.4407350286801,-3.26106045132567
-71,-20.0634008339268,17.0551574761191,13.6467609490228,-3.10365536633807
-70,-19.6934884336587,17.4126954273421,13.853969056613,-2.97436497734322
-69,-19.3549813401716,17.775586667425,14.0632208223779,-2.8855459969561
-68,-19.0875525209427,18.1350571349213,14.2748798096854,-2.84127755925434
-67,-18.9246411478552,18.4815997130887,14.4886910583852,-2.83689337623866
-66,-18.8905845520329,18.8074935891927,14.7038633089545,-2.85997325158611
-65,-19.0001946531708,19.1084499390382,14.9192980157681,-2.89282552739336
-64,-19.2588892175086,19.3842196148998,15.1338740668017,-2.91650660491904
-63,-19.6620743279635,19.6382562369163,15.3466979288418,-2.91584424412364
-62,-20.1931346545035,19.8766301402838,15.5572569127405,-2.88398541376632
-61,-20.8202175074691,20.1064446000096,15.7654526292163,-2.8245589181998
-60,-21.4936222289879,20.3340873454281,15.9715280328254,-2.75041349178781
-59,-22.1483535315713,20.5637314056846,16.1759259787669,-2.67962142456201
-58,-22.7180150914721,20.796484618605,16.3791269726358,-2.63060206025332
-57,-23.1603484203296,21.0304093927377,16.581509871835,-2.6180420703019
-56,-23.4800569756966,21.2613427211796,16.7832653410787,-2.65033477123849
-55,-23.7293801033909,21.4841891257068,16.9843730370285,-2.72847626997648
-54,-23.9862685943444,21.6942631605889,17.1846353846262,-2.84613191957827
-53,-24.3295342822712,21.8883333309834,17.3837480111061,-2.99075427047244
-52,-24.8251605723383,22.0651796663543,17.581381797539,-3.14583992282522
-51,-25.5225499166473,22.2256301891358,17.7772538300948,-3.29434009098723
-50,-26.4514415938097,22.372146961705,17.9711719963398,-3.42274394236915
-49,-27.6062287202864,22.508097296968,18.1630474641814,-3.52466410783608
-48,-28.8955282378881,22.6368881861422,18.3528780039343,-3.60249717206644
-47,-30.0384943280615,22.761163952661,18.5407112349081,-3.66640004537796
-46,-30.5330773258457,22.8822527354616,18.7265996646253,-3.73107553892099
-45,-30.0617864419541,22.9999827379476,18.9105590202209,-3.8117284772767
-44,-28.9213622759679,23.1128844031051,19.0925386333715,-3.92048524135117
-43,-27.6105017727483,23.2186867714377,19.2724086171503,-4.06390618991834
-42,-26.4117608947372,23.314947415667,19.44996437399,-4.2416243120965
-41,-25.4176409610826,23.3996458931964,19.6249455027327,-4.44595362317643
-40,-24.6373866267183,23.4716106182795,19.797063978214,-4.66246750704332
-39,-24.0520258061035,23.5307116136707,19.9660357060279,-4.87179694164484
-38,-23.6348642971216,23.5778126085581,20.1316100150104,-5.05292339650052
-37,-23.3582383236658,23.6145235945833,20.2935929418567,-5.18776546003937
-36,-23.1956226643363,23.6428272586948,20.4518618332018,-5.26593496154196
-35,-23.1224466443873,23.6646702177976,20.606370452218,-5.28783594791348
-34,-23.1167668882242,23.6816112333123,20.7571451676114,-5.26468977758638
-33,-23.1600692579216,23.694601260478,20.9042737952569,-5.21559695117313
-32,-23.2380638568449,23.7039355947262,21.0478892358418,-5.16318414537546
-31,-23.3411581832329,23.7093745346153,21.1881502521093,-5.12962335536401
-30,-23.4643140045001,23.7103887602481,21.3252216341647,-5.13400172669716
-29,-23.6061817958802,23.7064607782459,21.459255695247,-5.19107192214592
-28,-23.7676539825484,23.6973693439239,21.5903766019812,-5.31090989251477
-27,-23.9501483264157,23.6833968551646,21.7186685407554,-5.49895138820063
-26,-24.1539599797209,23.6654227987538,21.84416821316,-5.75603850415607
-25,-24.376945065856,23.6448918391414,21.9668616855483,-6.07831207126516
-24,-24.6137101142941,23.6236681633996,22.0866852269855,-6.45698344773799
-23,-24.8554405694073,23.6038060100111,22.2035294803273,-6.87822312623358
-22,-25.0904972678442,23.5872788638936,22.3172461339518,-7.32361492413505
-21,-25.3058668731246,23.575715434183,22.4276561947492,-7.7717559909131
-20,-25.4893785217165,23.5701879438148,22.534558992925,-8.20141665028085
-19,-25.6322770835382,23.5710871258612,22.6377411542702,-8.5959860402493
-18,-25.7314236814097,23.5781005124718,22.7369849298368,-8.94787221088085
-17,-25.7903545337813,23.5902903269746,22.8320754502384,-9.26090626225617
-16,-25.8188280629633,23.6062497398349,22.9228066490794,-9.54949119645691
-15,-25.8311314286449,23.6243054905358,23.0089857595979,-9.83496979936853
-14,-25.8438750056242,23.6427323210292,23.0904364190684,-10.141036880113
-13,-25.8740212920372,23.6599489866682,23.1670005114382,-10.4900102463611
-12,-25.937582318158,23.6746739234083,23.2385389397033,-10.9008233250322
-11,-26.0490585997008,23.6860280371186,23.3049315490293,-11.3886911987555
-10,-26.2214706061076,23.6935806019434,23.3660764251624,-11.9660142661064
-9,-26.4667714541682,23.6973411471031,23.4218887768889,-12.6441249963107
-8,-26.7964597860705,23.6977054921475,23.4722995827661,-13.4357042308142
-7,-27.2222615486272,23.6953679752515,23.5172541470443,-14.3579655285786
-6,-27.7567651095828,23.6912144011904,23.5567106725134,-15.437078422324
-5,-28.4138196297563,23.6862109914782,23.5906389226719,-16.7150354589112
-4,-29.2082210548196,23.6813032330351,23.6190190146619,-18.2619905453723
-3,-30.1533851844916,23.6773348851472,23.6418403593527,-20.2023616703258
-2,-31.2534762605859,23.6749920557376,23.6591007464314,-22.7814098884332
-1,-32.4809908795877,23.674771436519,23.6708055603436,-26.5855396403938
0,-33.7219269273782,23.6769671069725,23.6769671069725,-33.7219269273786
1,-34.6854565021615,23.6816681742096,23.6776040302377,-41.077092061307
2,-34.9217714530226,23.6887604966157,23.6727408014173,-28.9042918192822
3,-34.2121233573579,23.6979293301272,23.6624072708833,-23.7808186990962
4,-32.8577575143741,23.7086644745459,23.646638281036,-20.5039950742522
5,-31.2964141844885,23.7202735094612,23.6254733494168,-18.0883555544638
6,-29.7802553552036,23.731910409171,23.5989564411662,-16.1821183393862
7,-28.4011191563123,23.7426254911513,23.5671358590032,-14.6221948407642
8,-27.1779225247152,23.7514386448453,23.5300642855344,-13.3213913385389
9,-26.1039775885584,23.7574323381317,23.4877990156845,-12.2283816860579
10,-25.1656999554336,23.759855575742,23.4404024151066,-11.3102791168321
11,-24.3490996649437,23.7582261022878,23.3879426323624,-10.5438777547841
12,-23.6417057735712,23.7524163910743,23.3304945774517,-9.91074398542213
13,-23.0328752389489,23.7427093785384,23.2681411563211,-9.39423007516329
14,-22.5135694961673,23.7298121553193,23.20097472035,-8.97759030656428
15,-22.0759898367583,23.7148195584503,23.1290986525559,-8.6428962385525
16,-21.7132106145414,23.6991246985819,23.0526289706885,-8.37073398031618
17,-21.4188604162435,23.684279959954,22.9716957853689,-8.14080592505301
18,-21.1868740356659,23.6718198438377,22.8864444144228,-7.93351535492505
19,-21.0113342743901,23.6630654838134,22.7970359294437,-7.73233186122513
20,-20.8864265717279,23.6589380851267,22.7036469050887,-7.52629179635876
21,-20.8065328180205,23.6598124666408,22.6064681630242,-7.31167315110485
22,-20.7664869239419,23.6654398551335,22.5057023562352,-7.09205155195352
23,-20.761998522401,23.6749598919511,22.4015603270353,-6.87662381685562
24,-20.7902208615794,23.6870065106132,22.2942562889479,-6.67743683918498
25,-20.8504001876018,23.6998942542128,22.184002016543,-6.50646991762015
26,-20.9445117210025,23.7118551532757,22.0710003584892,-6.37329420911169
27,-21.0777819288929,23.7212852957452,21.9554384921958,-6.2835834234906
28,-21.2590327127692,23.7269566894792,21.8374813874432,-6.23840790763815
29,-21.5008581208762,23.7281540921531,21.7172659221201,-6.23412716290253
30,-21.8197388821827,23.7247073549302,21.5948959919634,-6.26274481957644
31,-22.2362929185953,23.7169066090644,21.4704387977368,-6.31269562831997
32,-22.7759499904985,23.7053093236954,21.3439223238091,-6.37010324892701
33,-23.470465435524,23.6904726680895,21.2153339096494,-6.42051713927819
34,-24.3609562345052,23.6726669874991,21.0846198351277,-6.45098484213016
35,-25.5037934704242,23.6516393263732,20.9516860482001,-6.45209429303617
36,-26.9823447211423,23.6264925974588,20.8164005668663,-6.41946671552872
37,-28.9321027564551,23.5957232524985,20.6785986159359,-6.35424382483058
38,-31.6002724153391,23.5574226240732,20.538092050899,-6.26241611199667
39,-35.4973195189376,23.5096054344993,20.3946848335684,-6.15321864532549
40,-41.3846205129656,23.4505956693494,20.2481959800278,-6.03705395648146
41,-41.7238391555539,23.3793831607459,20.0984902682338,-5.92339634038657
42,-36.0380133564398,23.2958654873702,19.9455149837155,-5.81897682808132
43,-32.328848143811,23.2009069135426,19.7893382582961,-5.72640020712352
44,-29.8618618803078,23.0961769251012,19.6301816024491,-5.64330668507846
45,-28.1051805251812,22.9837748223433,19.4684368697372,-5.56226498887679
46,-26.7958736244635,22.8657012364964,19.3046572044861,-5.47168285826998
47,-25.7845614626179,22.7432920396988,19.1395136339423,-5.35797919664063
48,-24.9758752538235,22.6167648341492,18.9737146400263,-5.20890242645733
49,-24.3057280750043,22.4850208174611,18.8078951499443,-5.01720931614669
50,-23.7327757958349,22.3457865610444,18.6424923687251,-4.78334079612152
51,-23.2348750707476,22.1960870703299,18.4776356327978,-4.51586738925806
52,-22.8061295728261,22.0329481651663,18.3130819569262,-4.22948083346894
53,-22.452835868141,21.8541650510699,18.1482247030518,-3.94148319090134
54,-22.1885681213218,21.658956508979,17.9821887252391,-3.66818957074658
55,-22.0294735929598,21.4483416209021,17.8140038427611,-3.42226981072705
56,-21.9906078165189,21.2251158729001,17.6428250410165,-3.21135463328912
57,-22.0834596396066,20.9933656188759,17.4681491406665,-3.03774985925561
58,-22.3143242710578,20.757555761437,17.2899697464938,-2.89896327106399
59,-22.6830941918236,20.5213574403242,17.1088189745589,-2.7888067792603
60,-23.1823115904508,20.2865163058489,16.9256671367376,-2.69891268826619
61,-23.796901523111,20.0521238457583,16.7416883530378,-2.62049796072388
62,-24.5057945978297,19.814576326836,16.557944105877,-2.54612271680474
63,-25.2872236668287,19.5682945438376,16.3750749094599,-2.4710975734536
64,-26.1288035277072,19.3070309543478,16.1931054114297,-2.39420729962043
65,-27.0407803227245,19.0254284410883,16.0114469283074,-2.31758741261437
66,-28.0678789647619,18.7204639450873,15.8291235556643,-2.2458502476989
67,-29.2964932735232,18.3924647844058,15.645170746025,-2.18476569647527
68,-30.86087225202,18.0454515057493,15.45908625317,-2.1398575486994
69,-32.957803085318,17.6866153819203,15.2711778691217,-2.11519158313852
70,-35.856822466751,17.3248378895037,15.0826644312989,-2.11249885702055
71,-39.5431557682327,16.9683940720787,14.8954482087715,-2.13068540083095
72,-40.8158270774581,16.6223597092268,14.7115794483388,-2.16575966733935
73,-37.4765957503882,16.2865802044547,14.5325543307919,-2.21123558304144
74,-34.2062919187467,15.9550477564323,14.3586828136019,-2.25907955173867
75,-31.8934724240556,15.617038336214,14.1887801622596,-2.30119437489244
76,-30.3075171643626,15.259654282046,14.0203458522138,-2.33123933732116
77,-29.2420967019361,14.8709720687083,13.850221764676,-2.34633598784813
78,-28.5528693857217,14.4430123980814,13.6755433193736,-2.34807145201631
79,-28.1263569191655,13.9740208978388,13.4946884504793,-2.34235079546464
80,-27.860560540601,13.4697245957933,13.3079215226174,-2.33805439536911
81,-27.6593154747032,12.9431509996892,13.1175084286049,-2.34489654236611
82,-27.4389140595737,12.412427143172,12.9272186012729,-2.37110659371153
83,-27.1415321690965,11.8961800294428,12.7413096982567,-2.42151035128215
84,-26.7442026703179,11.4071991466161,12.5632802490116,-2.49641809132242
